C:\Users\emilbp\PhD\Projects\graphene-production\data\derived_data\xps\20170920_Gr-NH2_for_Radisurf\GrNH2.vms
Survey/5
	Characteristic Energy eV	1486.69	Acquisition Time s	0.2
KE_Survey/5	BE_Survey/5	CPS_Survey/5	Background_Survey/5
136.68	1350.01	59040	59040
137.18	1349.51	58655	58655
137.68	1349.01	58740	58740
138.18	1348.51	58540	58540
138.68	1348.01	59245	59245
139.18	1347.51	59395	59395
139.68	1347.01	58695	58695
140.18	1346.51	58980	58980
140.68	1346.01	58690	58690
141.18	1345.51	59400	59400
141.68	1345.01	59935	59935
142.18	1344.51	59210	59210
142.68	1344.01	58840	58840
143.18	1343.51	58995	58995
143.68	1343.01	58420	58420
144.18	1342.51	59030	59030
144.68	1342.01	58070	58070
145.18	1341.51	58105	58105
145.68	1341.01	58125	58125
146.18	1340.51	59220	59220
146.68	1340.01	59375	59375
147.18	1339.51	57795	57795
147.68	1339.01	58625	58625
148.18	1338.51	59000	59000
148.68	1338.01	59250	59250
149.18	1337.51	58325	58325
149.68	1337.01	59115	59115
150.18	1336.51	58155	58155
150.68	1336.01	58670	58670
151.18	1335.51	58995	58995
151.68	1335.01	58730	58730
152.18	1334.51	58950	58950
152.68	1334.01	59100	59100
153.18	1333.51	59710	59710
153.68	1333.01	59275	59275
154.18	1332.51	59595	59595
154.68	1332.01	59430	59430
155.18	1331.51	59090	59090
155.68	1331.01	59240	59240
156.18	1330.51	59385	59385
156.68	1330.01	59320	59320
157.18	1329.51	58825	58825
157.68	1329.01	59750	59750
158.18	1328.51	59530	59530
158.68	1328.01	59510	59510
159.18	1327.51	58985	58985
159.68	1327.01	58230	58230
160.18	1326.51	58810	58810
160.68	1326.01	58735	58735
161.18	1325.51	59385	59385
161.68	1325.01	59535	59535
162.18	1324.51	59650	59650
162.68	1324.01	59410	59410
163.18	1323.51	59060	59060
163.68	1323.01	59515	59515
164.18	1322.51	59590	59590
164.68	1322.01	59395	59395
165.18	1321.51	59585	59585
165.68	1321.01	60075	60075
166.18	1320.51	59930	59930
166.68	1320.01	60305	60305
167.18	1319.51	60185	60185
167.68	1319.01	60675	60675
168.18	1318.51	60410	60410
168.68	1318.01	60175	60175
169.18	1317.51	59645	59645
169.68	1317.01	59660	59660
170.18	1316.51	59955	59955
170.68	1316.01	59540	59540
171.18	1315.51	59855	59855
171.68	1315.01	59930	59930
172.18	1314.51	59310	59310
172.68	1314.01	59005	59005
173.18	1313.51	60170	60170
173.68	1313.01	59980	59980
174.18	1312.51	59190	59190
174.68	1312.01	58985	58985
175.18	1311.51	59765	59765
175.68	1311.01	60145	60145
176.18	1310.51	59375	59375
176.68	1310.01	59545	59545
177.18	1309.51	58985	58985
177.68	1309.01	59395	59395
178.18	1308.51	60275	60275
178.68	1308.01	59915	59915
179.18	1307.51	60310	60310
179.68	1307.01	61955	61955
180.18	1306.51	62230	62230
180.68	1306.01	61920	61920
181.18	1305.51	62715	62715
181.68	1305.01	63275	63275
182.18	1304.51	65200	65200
182.68	1304.01	64585	64585
183.18	1303.51	63990	63990
183.68	1303.01	64215	64215
184.18	1302.51	63115	63115
184.68	1302.01	63440	63440
185.18	1301.51	62480	62480
185.68	1301.01	62715	62715
186.18	1300.51	61565	61565
186.68	1300.01	62005	62005
187.18	1299.51	61430	61430
187.68	1299.01	61540	61540
188.18	1298.51	62220	62220
188.68	1298.01	61640	61640
189.18	1297.51	62435	62435
189.68	1297.01	61275	61275
190.18	1296.51	61490	61490
190.68	1296.01	61345	61345
191.18	1295.51	61050	61050
191.68	1295.01	61590	61590
192.18	1294.51	62205	62205
192.68	1294.01	62640	62640
193.18	1293.51	61205	61205
193.68	1293.01	62220	62220
194.18	1292.51	62260	62260
194.68	1292.01	62210	62210
195.18	1291.51	61990	61990
195.68	1291.01	61610	61610
196.18	1290.51	62045	62045
196.68	1290.01	62365	62365
197.18	1289.51	62960	62960
197.68	1289.01	62565	62565
198.18	1288.51	62245	62245
198.68	1288.01	62655	62655
199.18	1287.51	63520	63520
199.68	1287.01	62655	62655
200.18	1286.51	62790	62790
200.68	1286.01	63370	63370
201.18	1285.51	63210	63210
201.68	1285.01	63880	63880
202.18	1284.51	63445	63445
202.68	1284.01	63350	63350
203.18	1283.51	64255	64255
203.68	1283.01	63815	63815
204.18	1282.51	63400	63400
204.68	1282.01	63510	63510
205.18	1281.51	63275	63275
205.68	1281.01	64005	64005
206.18	1280.51	63705	63705
206.68	1280.01	64180	64180
207.18	1279.51	64560	64560
207.68	1279.01	64535	64535
208.18	1278.51	64885	64885
208.68	1278.01	64475	64475
209.18	1277.51	64375	64375
209.68	1277.01	65220	65220
210.18	1276.51	65475	65475
210.68	1276.01	64425	64425
211.18	1275.51	64095	64095
211.68	1275.01	64240	64240
212.18	1274.51	64330	64330
212.68	1274.01	65000	65000
213.18	1273.51	65015	65015
213.68	1273.01	65070	65070
214.18	1272.51	65145	65145
214.68	1272.01	65805	65805
215.18	1271.51	66270	66270
215.68	1271.01	65775	65775
216.18	1270.51	66200	66200
216.68	1270.01	65670	65670
217.18	1269.51	65890	65890
217.68	1269.01	65875	65875
218.18	1268.51	66050	66050
218.68	1268.01	65480	65480
219.18	1267.51	65520	65520
219.68	1267.01	66490	66490
220.18	1266.51	66510	66510
220.68	1266.01	66895	66895
221.18	1265.51	66450	66450
221.68	1265.01	66530	66530
222.18	1264.51	67295	67295
222.68	1264.01	66375	66375
223.18	1263.51	66925	66925
223.68	1263.01	67440	67440
224.18	1262.51	66260	66260
224.68	1262.01	66790	66790
225.18	1261.51	68280	68280
225.68	1261.01	67675	67675
226.18	1260.51	67430	67430
226.68	1260.01	67105	67105
227.18	1259.51	66525	66525
227.68	1259.01	67780	67780
228.18	1258.51	68445	68445
228.68	1258.01	68410	68410
229.18	1257.51	68075	68075
229.68	1257.01	68765	68765
230.18	1256.51	68355	68355
230.68	1256.01	68310	68310
231.18	1255.51	68945	68945
231.68	1255.01	68320	68320
232.18	1254.51	68595	68595
232.68	1254.01	68245	68245
233.18	1253.51	68865	68865
233.68	1253.01	69210	69210
234.18	1252.51	69405	69405
234.68	1252.01	69855	69855
235.18	1251.51	68940	68940
235.68	1251.01	71105	71105
236.18	1250.51	70770	70770
236.68	1250.01	70010	70010
237.18	1249.51	70550	70550
237.68	1249.01	71010	71010
238.18	1248.51	71205	71205
238.68	1248.01	71555	71555
239.18	1247.51	71890	71890
239.68	1247.01	72440	72440
240.18	1246.51	72565	72565
240.68	1246.01	72430	72430
241.18	1245.51	72505	72505
241.68	1245.01	73140	73140
242.18	1244.51	72470	72470
242.68	1244.01	72845	72845
243.18	1243.51	72665	72665
243.68	1243.01	71825	71825
244.18	1242.51	71860	71860
244.68	1242.01	73110	73110
245.18	1241.51	71520	71520
245.68	1241.01	72255	72255
246.18	1240.51	72830	72830
246.68	1240.01	72540	72540
247.18	1239.51	73460	73460
247.68	1239.01	73225	73225
248.18	1238.51	72055	72055
248.68	1238.01	72200	72200
249.18	1237.51	72680	72680
249.68	1237.01	72840	72840
250.18	1236.51	72400	72400
250.68	1236.01	72485	72485
251.18	1235.51	72665	72665
251.68	1235.01	72720	72720
252.18	1234.51	73515	73515
252.68	1234.01	73695	73695
253.18	1233.51	75185	75185
253.68	1233.01	74425	74425
254.18	1232.51	75245	75245
254.68	1232.01	75545	75545
255.18	1231.51	76805	76805
255.68	1231.01	77055	77055
256.18	1230.51	77920	77920
256.68	1230.01	78655	78655
257.18	1229.51	79170	79170
257.68	1229.01	78360	78360
258.18	1228.51	80045	80045
258.68	1228.01	79580	79580
259.18	1227.51	78725	78725
259.68	1227.01	78880	78880
260.18	1226.51	79940	79940
260.68	1226.01	80175	80175
261.18	1225.51	79360	79360
261.68	1225.01	79880	79880
262.18	1224.51	80300	80300
262.68	1224.01	80140	80140
263.18	1223.51	81065	81065
263.68	1223.01	79570	79570
264.18	1222.51	78360	78360
264.68	1222.01	79005	79005
265.18	1221.51	79390	79390
265.68	1221.01	78315	78315
266.18	1220.51	77195	77195
266.68	1220.01	76605	76605
267.18	1219.51	76415	76415
267.68	1219.01	75635	75635
268.18	1218.51	74235	74235
268.68	1218.01	73495	73495
269.18	1217.51	72375	72375
269.68	1217.01	72075	72075
270.18	1216.51	71580	71580
270.68	1216.01	71560	71560
271.18	1215.51	70785	70785
271.68	1215.01	68510	68510
272.18	1214.51	67615	67615
272.68	1214.01	67410	67410
273.18	1213.51	64785	64785
273.68	1213.01	64965	64965
274.18	1212.51	64350	64350
274.68	1212.01	63040	63040
275.18	1211.51	62015	62015
275.68	1211.01	62255	62255
276.18	1210.51	61025	61025
276.68	1210.01	61505	61505
277.18	1209.51	59875	59875
277.68	1209.01	59150	59150
278.18	1208.51	59800	59800
278.68	1208.01	58760	58760
279.18	1207.51	58010	58010
279.68	1207.01	57445	57445
280.18	1206.51	57275	57275
280.68	1206.01	56435	56435
281.18	1205.51	56995	56995
281.68	1205.01	55975	55975
282.18	1204.51	55905	55905
282.68	1204.01	56570	56570
283.18	1203.51	55890	55890
283.68	1203.01	55195	55195
284.18	1202.51	55115	55115
284.68	1202.01	55505	55505
285.18	1201.51	54710	54710
285.68	1201.01	55195	55195
286.18	1200.51	56240	56240
286.68	1200.01	55225	55225
287.18	1199.51	55795	55795
287.68	1199.01	55990	55990
288.18	1198.51	55085	55085
288.68	1198.01	55830	55830
289.18	1197.51	56075	56075
289.68	1197.01	56280	56280
290.18	1196.51	56080	56080
290.68	1196.01	56170	56170
291.18	1195.51	56915	56915
291.68	1195.01	57005	57005
292.18	1194.51	56350	56350
292.68	1194.01	56050	56050
293.18	1193.51	56605	56605
293.68	1193.01	55920	55920
294.18	1192.51	56120	56120
294.68	1192.01	56945	56945
295.18	1191.51	56695	56695
295.68	1191.01	56045	56045
296.18	1190.51	55575	55575
296.68	1190.01	55910	55910
297.18	1189.51	56690	56690
297.68	1189.01	56790	56790
298.18	1188.51	56585	56585
298.68	1188.01	56665	56665
299.18	1187.51	56355	56355
299.68	1187.01	57055	57055
300.18	1186.51	57555	57555
300.68	1186.01	56505	56505
301.18	1185.51	56725	56725
301.68	1185.01	57180	57180
302.18	1184.51	56965	56965
302.68	1184.01	57165	57165
303.18	1183.51	57355	57355
303.68	1183.01	55805	55805
304.18	1182.51	57065	57065
304.68	1182.01	57275	57275
305.18	1181.51	56560	56560
305.68	1181.01	57040	57040
306.18	1180.51	57215	57215
306.68	1180.01	58390	58390
307.18	1179.51	57485	57485
307.68	1179.01	57505	57505
308.18	1178.51	58075	58075
308.68	1178.01	58640	58640
309.18	1177.51	57080	57080
309.68	1177.01	57705	57705
310.18	1176.51	59015	59015
310.68	1176.01	57790	57790
311.18	1175.51	57105	57105
311.68	1175.01	56970	56970
312.18	1174.51	58560	58560
312.68	1174.01	58485	58485
313.18	1173.51	58490	58490
313.68	1173.01	58900	58900
314.18	1172.51	58310	58310
314.68	1172.01	58555	58555
315.18	1171.51	58805	58805
315.68	1171.01	58140	58140
316.18	1170.51	58110	58110
316.68	1170.01	58400	58400
317.18	1169.51	58350	58350
317.68	1169.01	58815	58815
318.18	1168.51	58715	58715
318.68	1168.01	58850	58850
319.18	1167.51	59090	59090
319.68	1167.01	59870	59870
320.18	1166.51	59085	59085
320.68	1166.01	58660	58660
321.18	1165.51	60060	60060
321.68	1165.01	58980	58980
322.18	1164.51	59525	59525
322.68	1164.01	59670	59670
323.18	1163.51	59175	59175
323.68	1163.01	59940	59940
324.18	1162.51	59960	59960
324.68	1162.01	60155	60155
325.18	1161.51	59140	59140
325.68	1161.01	60165	60165
326.18	1160.51	59435	59435
326.68	1160.01	58590	58590
327.18	1159.51	59980	59980
327.68	1159.01	60195	60195
328.18	1158.51	60565	60565
328.68	1158.01	60270	60270
329.18	1157.51	60480	60480
329.68	1157.01	60685	60685
330.18	1156.51	60160	60160
330.68	1156.01	60645	60645
331.18	1155.51	60265	60265
331.68	1155.01	60445	60445
332.18	1154.51	60165	60165
332.68	1154.01	60290	60290
333.18	1153.51	59380	59380
333.68	1153.01	60280	60280
334.18	1152.51	61080	61080
334.68	1152.01	61135	61135
335.18	1151.51	60725	60725
335.68	1151.01	61300	61300
336.18	1150.51	60935	60935
336.68	1150.01	60405	60405
337.18	1149.51	60250	60250
337.68	1149.01	61140	61140
338.18	1148.51	61240	61240
338.68	1148.01	61785	61785
339.18	1147.51	61825	61825
339.68	1147.01	61595	61595
340.18	1146.51	62575	62575
340.68	1146.01	62795	62795
341.18	1145.51	61620	61620
341.68	1145.01	61295	61295
342.18	1144.51	61925	61925
342.68	1144.01	62865	62865
343.18	1143.51	61625	61625
343.68	1143.01	61740	61740
344.18	1142.51	62095	62095
344.68	1142.01	63090	63090
345.18	1141.51	61410	61410
345.68	1141.01	62340	62340
346.18	1140.51	62605	62605
346.68	1140.01	62035	62035
347.18	1139.51	62205	62205
347.68	1139.01	63045	63045
348.18	1138.51	62945	62945
348.68	1138.01	62445	62445
349.18	1137.51	62345	62345
349.68	1137.01	62465	62465
350.18	1136.51	62455	62455
350.68	1136.01	62280	62280
351.18	1135.51	62550	62550
351.68	1135.01	62845	62845
352.18	1134.51	62965	62965
352.68	1134.01	63925	63925
353.18	1133.51	63065	63065
353.68	1133.01	63520	63520
354.18	1132.51	63385	63385
354.68	1132.01	63110	63110
355.18	1131.51	62970	62970
355.68	1131.01	62990	62990
356.18	1130.51	62145	62145
356.68	1130.01	63465	63465
357.18	1129.51	63570	63570
357.68	1129.01	64095	64095
358.18	1128.51	64315	64315
358.68	1128.01	63650	63650
359.18	1127.51	63715	63715
359.68	1127.01	64235	64235
360.18	1126.51	63590	63590
360.68	1126.01	63975	63975
361.18	1125.51	63580	63580
361.68	1125.01	64215	64215
362.18	1124.51	64775	64775
362.68	1124.01	65110	65110
363.18	1123.51	64265	64265
363.68	1123.01	64195	64195
364.18	1122.51	64660	64660
364.68	1122.01	64050	64050
365.18	1121.51	64570	64570
365.68	1121.01	64510	64510
366.18	1120.51	65060	65060
366.68	1120.01	64670	64670
367.18	1119.51	65040	65040
367.68	1119.01	65520	65520
368.18	1118.51	64975	64975
368.68	1118.01	65590	65590
369.18	1117.51	64995	64995
369.68	1117.01	65105	65105
370.18	1116.51	65230	65230
370.68	1116.01	65000	65000
371.18	1115.51	66015	66015
371.68	1115.01	65130	65130
372.18	1114.51	66260	66260
372.68	1114.01	65660	65660
373.18	1113.51	65725	65725
373.68	1113.01	66705	66705
374.18	1112.51	66220	66220
374.68	1112.01	65080	65080
375.18	1111.51	66170	66170
375.68	1111.01	65725	65725
376.18	1110.51	65590	65590
376.68	1110.01	66755	66755
377.18	1109.51	66645	66645
377.68	1109.01	66405	66405
378.18	1108.51	67030	67030
378.68	1108.01	67205	67205
379.18	1107.51	67315	67315
379.68	1107.01	66445	66445
380.18	1106.51	66295	66295
380.68	1106.01	67185	67185
381.18	1105.51	67765	67765
381.68	1105.01	67845	67845
382.18	1104.51	67835	67835
382.68	1104.01	66775	66775
383.18	1103.51	66965	66965
383.68	1103.01	67600	67600
384.18	1102.51	66840	66840
384.68	1102.01	66920	66920
385.18	1101.51	67175	67175
385.68	1101.01	67495	67495
386.18	1100.51	66600	66600
386.68	1100.01	67640	67640
387.18	1099.51	68470	68470
387.68	1099.01	68515	68515
388.18	1098.51	68020	68020
388.68	1098.01	66895	66895
389.18	1097.51	68060	68060
389.68	1097.01	68910	68910
390.18	1096.51	67785	67785
390.68	1096.01	68305	68305
391.18	1095.51	68705	68705
391.68	1095.01	68235	68235
392.18	1094.51	67690	67690
392.68	1094.01	67300	67300
393.18	1093.51	68360	68360
393.68	1093.01	67590	67590
394.18	1092.51	67270	67270
394.68	1092.01	68510	68510
395.18	1091.51	68740	68740
395.68	1091.01	68955	68955
396.18	1090.51	68835	68835
396.68	1090.01	68880	68880
397.18	1089.51	68765	68765
397.68	1089.01	68080	68080
398.18	1088.51	68650	68650
398.68	1088.01	70200	70200
399.18	1087.51	69680	69680
399.68	1087.01	69290	69290
400.18	1086.51	68385	68385
400.68	1086.01	68870	68870
401.18	1085.51	68445	68445
401.68	1085.01	68765	68765
402.18	1084.51	69070	69070
402.68	1084.01	69405	69405
403.18	1083.51	70080	70080
403.68	1083.01	70400	70400
404.18	1082.51	70200	70200
404.68	1082.01	69365	69365
405.18	1081.51	69820	69820
405.68	1081.01	69265	69265
406.18	1080.51	69810	69810
406.68	1080.01	69760	69760
407.18	1079.51	68735	68735
407.68	1079.01	69515	69515
408.18	1078.51	70205	70205
408.68	1078.01	69645	69645
409.18	1077.51	70620	70620
409.68	1077.01	70335	70335
410.18	1076.51	70125	70125
410.68	1076.01	70655	70655
411.18	1075.51	70055	70055
411.68	1075.01	70520	70520
412.18	1074.51	70385	70385
412.68	1074.01	71130	71130
413.18	1073.51	70265	70265
413.68	1073.01	71260	71260
414.18	1072.51	71635	71635
414.68	1072.01	71285	71285
415.18	1071.51	71550	71550
415.68	1071.01	71215	71215
416.18	1070.51	71545	71545
416.68	1070.01	72015	72015
417.18	1069.51	72080	72080
417.68	1069.01	71900	71900
418.18	1068.51	71460	71460
418.68	1068.01	71175	71175
419.18	1067.51	71345	71345
419.68	1067.01	69690	69690
420.18	1066.51	71270	71270
420.68	1066.01	70375	70375
421.18	1065.51	72495	72495
421.68	1065.01	72125	72125
422.18	1064.51	71850	71850
422.68	1064.01	71490	71490
423.18	1063.51	72310	72310
423.68	1063.01	71845	71845
424.18	1062.51	72290	72290
424.68	1062.01	72225	72225
425.18	1061.51	72055	72055
425.68	1061.01	72690	72690
426.18	1060.51	71785	71785
426.68	1060.01	71920	71920
427.18	1059.51	72555	72555
427.68	1059.01	72755	72755
428.18	1058.51	73660	73660
428.68	1058.01	73300	73300
429.18	1057.51	72585	72585
429.68	1057.01	72510	72510
430.18	1056.51	72610	72610
430.68	1056.01	72335	72335
431.18	1055.51	73125	73125
431.68	1055.01	73130	73130
432.18	1054.51	73185	73185
432.68	1054.01	72200	72200
433.18	1053.51	72885	72885
433.68	1053.01	72960	72960
434.18	1052.51	73060	73060
434.68	1052.01	73380	73380
435.18	1051.51	74205	74205
435.68	1051.01	74205	74205
436.18	1050.51	74450	74450
436.68	1050.01	73615	73615
437.18	1049.51	74255	74255
437.68	1049.01	74495	74495
438.18	1048.51	74145	74145
438.68	1048.01	74380	74380
439.18	1047.51	75280	75280
439.68	1047.01	74095	74095
440.18	1046.51	74910	74910
440.68	1046.01	74915	74915
441.18	1045.51	75485	75485
441.68	1045.01	75450	75450
442.18	1044.51	75190	75190
442.68	1044.01	75660	75660
443.18	1043.51	74270	74270
443.68	1043.01	75265	75265
444.18	1042.51	74630	74630
444.68	1042.01	76055	76055
445.18	1041.51	75455	75455
445.68	1041.01	75760	75760
446.18	1040.51	75215	75215
446.68	1040.01	75440	75440
447.18	1039.51	76440	76440
447.68	1039.01	75015	75015
448.18	1038.51	75325	75325
448.68	1038.01	76615	76615
449.18	1037.51	76275	76275
449.68	1037.01	76445	76445
450.18	1036.51	75780	75780
450.68	1036.01	75435	75435
451.18	1035.51	76200	76200
451.68	1035.01	75545	75545
452.18	1034.51	76750	76750
452.68	1034.01	76570	76570
453.18	1033.51	75850	75850
453.68	1033.01	76220	76220
454.18	1032.51	76320	76320
454.68	1032.01	75840	75840
455.18	1031.51	76150	76150
455.68	1031.01	76690	76690
456.18	1030.51	77100	77100
456.68	1030.01	77385	77385
457.18	1029.51	76245	76245
457.68	1029.01	76645	76645
458.18	1028.51	77125	77125
458.68	1028.01	76220	76220
459.18	1027.51	75755	75755
459.68	1027.01	77445	77445
460.18	1026.51	77355	77355
460.68	1026.01	77275	77275
461.18	1025.51	77235	77235
461.68	1025.01	78065	78065
462.18	1024.51	77370	77370
462.68	1024.01	77870	77870
463.18	1023.51	78345	78345
463.68	1023.01	79405	79405
464.18	1022.51	80575	80575
464.68	1022.01	79225	79225
465.18	1021.51	80025	80025
465.68	1021.01	79495	79495
466.18	1020.51	79545	79545
466.68	1020.01	79625	79625
467.18	1019.51	79285	79285
467.68	1019.01	80290	80290
468.18	1018.51	79655	79655
468.68	1018.01	78305	78305
469.18	1017.51	78540	78540
469.68	1017.01	79105	79105
470.18	1016.51	79250	79250
470.68	1016.01	78615	78615
471.18	1015.51	79330	79330
471.68	1015.01	79425	79425
472.18	1014.51	79555	79555
472.68	1014.01	79905	79905
473.18	1013.51	80225	80225
473.68	1013.01	80270	80270
474.18	1012.51	79525	79525
474.68	1012.01	78955	78955
475.18	1011.51	78950	78950
475.68	1011.01	79215	79215
476.18	1010.51	79390	79390
476.68	1010.01	79155	79155
477.18	1009.51	79310	79310
477.68	1009.01	80790	80790
478.18	1008.51	80625	80625
478.68	1008.01	79235	79235
479.18	1007.51	79760	79760
479.68	1007.01	80915	80915
480.18	1006.51	80645	80645
480.68	1006.01	79940	79940
481.18	1005.51	80360	80360
481.68	1005.01	80925	80925
482.18	1004.51	81485	81485
482.68	1004.01	82330	82330
483.18	1003.51	83170	83170
483.68	1003.01	82935	82935
484.18	1002.51	83440	83440
484.68	1002.01	84180	84180
485.18	1001.51	83895	83895
485.68	1001.01	84095	84095
486.18	1000.51	83645	83645
486.68	1000.01	83660	83660
487.18	999.51	83285	83285
487.68	999.01	84165	84165
488.18	998.51	83875	83875
488.68	998.01	83435	83435
489.18	997.51	83745	83745
489.68	997.01	84100	84100
490.18	996.51	84275	84275
490.68	996.01	82625	82625
491.18	995.51	82395	82395
491.68	995.01	82170	82170
492.18	994.51	82205	82205
492.68	994.01	80995	80995
493.18	993.51	79900	79900
493.68	993.01	80210	80210
494.18	992.51	79550	79550
494.68	992.01	79995	79995
495.18	991.51	79540	79540
495.68	991.01	78410	78410
496.18	990.51	77910	77910
496.68	990.01	77050	77050
497.18	989.51	76820	76820
497.68	989.01	77820	77820
498.18	988.51	77660	77660
498.68	988.01	77075	77075
499.18	987.51	77715	77715
499.68	987.01	76360	76360
500.18	986.51	77560	77560
500.68	986.01	77265	77265
501.18	985.51	76770	76770
501.68	985.01	76695	76695
502.18	984.51	78815	78815
502.68	984.01	79240	79240
503.18	983.51	79395	79395
503.68	983.01	78940	78940
504.18	982.51	80170	80170
504.68	982.01	82425	82425
505.18	981.51	83985	83985
505.68	981.01	84950	84950
506.18	980.51	85825	85825
506.68	980.01	86100	86100
507.18	979.51	87660	87660
507.68	979.01	87360	87360
508.18	978.51	88490	88490
508.68	978.01	89185	89185
509.18	977.51	89165	89165
509.68	977.01	88950	88950
510.18	976.51	88685	88685
510.68	976.01	89305	89305
511.18	975.51	88520	88520
511.68	975.01	88075	88075
512.18	974.51	87820	87820
512.68	974.01	86075	86075
513.18	973.51	86135	86135
513.68	973.01	84240	84240
514.18	972.51	84370	84370
514.68	972.01	83560	83560
515.18	971.51	82670	82670
515.68	971.01	81010	81010
516.18	970.51	78050	78050
516.68	970.01	77655	77655
517.18	969.51	76500	76500
517.68	969.01	74570	74570
518.18	968.51	73345	73345
518.68	968.01	72210	72210
519.18	967.51	70995	70995
519.68	967.01	69105	69105
520.18	966.51	68150	68150
520.68	966.01	67530	67530
521.18	965.51	65645	65645
521.68	965.01	64930	64930
522.18	964.51	65545	65545
522.68	964.01	64590	64590
523.18	963.51	64020	64020
523.68	963.01	63550	63550
524.18	962.51	63770	63770
524.68	962.01	63510	63510
525.18	961.51	63190	63190
525.68	961.01	63220	63220
526.18	960.51	63170	63170
526.68	960.01	62910	62910
527.18	959.51	62910	62910
527.68	959.01	62855	62855
528.18	958.51	62125	62125
528.68	958.01	63125	63125
529.18	957.51	62325	62325
529.68	957.01	61685	61685
530.18	956.51	62670	62670
530.68	956.01	62355	62355
531.18	955.51	62485	62485
531.68	955.01	62240	62240
532.18	954.51	62795	62795
532.68	954.01	62580	62580
533.18	953.51	62890	62890
533.68	953.01	62110	62110
534.18	952.51	61875	61875
534.68	952.01	62435	62435
535.18	951.51	61650	61650
535.68	951.01	62595	62595
536.18	950.51	62480	62480
536.68	950.01	61785	61785
537.18	949.51	61830	61830
537.68	949.01	61845	61845
538.18	948.51	61795	61795
538.68	948.01	62260	62260
539.18	947.51	62515	62515
539.68	947.01	62525	62525
540.18	946.51	61900	61900
540.68	946.01	61735	61735
541.18	945.51	62255	62255
541.68	945.01	62230	62230
542.18	944.51	62420	62420
542.68	944.01	62410	62410
543.18	943.51	62320	62320
543.68	943.01	62690	62690
544.18	942.51	62750	62750
544.68	942.01	61770	61770
545.18	941.51	62560	62560
545.68	941.01	63200	63200
546.18	940.51	62820	62820
546.68	940.01	62870	62870
547.18	939.51	63080	63080
547.68	939.01	62600	62600
548.18	938.51	62700	62700
548.68	938.01	62680	62680
549.18	937.51	62460	62460
549.68	937.01	62705	62705
550.18	936.51	62830	62830
550.68	936.01	63035	63035
551.18	935.51	62855	62855
551.68	935.01	62955	62955
552.18	934.51	62950	62950
552.68	934.01	63035	63035
553.18	933.51	63035	63035
553.68	933.01	62830	62830
554.18	932.51	63595	63595
554.68	932.01	63475	63475
555.18	931.51	62860	62860
555.68	931.01	62410	62410
556.18	930.51	62505	62505
556.68	930.01	63295	63295
557.18	929.51	62225	62225
557.68	929.01	62475	62475
558.18	928.51	62955	62955
558.68	928.01	62860	62860
559.18	927.51	62485	62485
559.68	927.01	62065	62065
560.18	926.51	63340	63340
560.68	926.01	62845	62845
561.18	925.51	63190	63190
561.68	925.01	63275	63275
562.18	924.51	63115	63115
562.68	924.01	63045	63045
563.18	923.51	62830	62830
563.68	923.01	62130	62130
564.18	922.51	61995	61995
564.68	922.01	63040	63040
565.18	921.51	62770	62770
565.68	921.01	63695	63695
566.18	920.51	62755	62755
566.68	920.01	61985	61985
567.18	919.51	63435	63435
567.68	919.01	62520	62520
568.18	918.51	62750	62750
568.68	918.01	63245	63245
569.18	917.51	62745	62745
569.68	917.01	63230	63230
570.18	916.51	63445	63445
570.68	916.01	64240	64240
571.18	915.51	62865	62865
571.68	915.01	63165	63165
572.18	914.51	62930	62930
572.68	914.01	62540	62540
573.18	913.51	62295	62295
573.68	913.01	62975	62975
574.18	912.51	61510	61510
574.68	912.01	62300	62300
575.18	911.51	63195	63195
575.68	911.01	62910	62910
576.18	910.51	62850	62850
576.68	910.01	62935	62935
577.18	909.51	64045	64045
577.68	909.01	63410	63410
578.18	908.51	63355	63355
578.68	908.01	63270	63270
579.18	907.51	62915	62915
579.68	907.01	63735	63735
580.18	906.51	62920	62920
580.68	906.01	62265	62265
581.18	905.51	62585	62585
581.68	905.01	63665	63665
582.18	904.51	63620	63620
582.68	904.01	63205	63205
583.18	903.51	63410	63410
583.68	903.01	62685	62685
584.18	902.51	63610	63610
584.68	902.01	62795	62795
585.18	901.51	62830	62830
585.68	901.01	63225	63225
586.18	900.51	63625	63625
586.68	900.01	63635	63635
587.18	899.51	63395	63395
587.68	899.01	62800	62800
588.18	898.51	63025	63025
588.68	898.01	63380	63380
589.18	897.51	63355	63355
589.68	897.01	64050	64050
590.18	896.51	63130	63130
590.68	896.01	64035	64035
591.18	895.51	63935	63935
591.68	895.01	63765	63765
592.18	894.51	63655	63655
592.68	894.01	63715	63715
593.18	893.51	62910	62910
593.68	893.01	63960	63960
594.18	892.51	63440	63440
594.68	892.01	63595	63595
595.18	891.51	63420	63420
595.68	891.01	63515	63515
596.18	890.51	63345	63345
596.68	890.01	63535	63535
597.18	889.51	63930	63930
597.68	889.01	63185	63185
598.18	888.51	62780	62780
598.68	888.01	62855	62855
599.18	887.51	62815	62815
599.68	887.01	62000	62000
600.18	886.51	62020	62020
600.68	886.01	62120	62120
601.18	885.51	63245	63245
601.68	885.01	62610	62610
602.18	884.51	62165	62165
602.68	884.01	63120	63120
603.18	883.51	63005	63005
603.68	883.01	62335	62335
604.18	882.51	62650	62650
604.68	882.01	62800	62800
605.18	881.51	62375	62375
605.68	881.01	61980	61980
606.18	880.51	62130	62130
606.68	880.01	62560	62560
607.18	879.51	62280	62280
607.68	879.01	61965	61965
608.18	878.51	62305	62305
608.68	878.01	62615	62615
609.18	877.51	62805	62805
609.68	877.01	62230	62230
610.18	876.51	62400	62400
610.68	876.01	63435	63435
611.18	875.51	62710	62710
611.68	875.01	61790	61790
612.18	874.51	62015	62015
612.68	874.01	62520	62520
613.18	873.51	62950	62950
613.68	873.01	63395	63395
614.18	872.51	63450	63450
614.68	872.01	62080	62080
615.18	871.51	62175	62175
615.68	871.01	62080	62080
616.18	870.51	63050	63050
616.68	870.01	61735	61735
617.18	869.51	61705	61705
617.68	869.01	61865	61865
618.18	868.51	61850	61850
618.68	868.01	62330	62330
619.18	867.51	62330	62330
619.68	867.01	62390	62390
620.18	866.51	61845	61845
620.68	866.01	62025	62025
621.18	865.51	62340	62340
621.68	865.01	61870	61870
622.18	864.51	62580	62580
622.68	864.01	62220	62220
623.18	863.51	62430	62430
623.68	863.01	61505	61505
624.18	862.51	62260	62260
624.68	862.01	62695	62695
625.18	861.51	62480	62480
625.68	861.01	62345	62345
626.18	860.51	62530	62530
626.68	860.01	62945	62945
627.18	859.51	61845	61845
627.68	859.01	62880	62880
628.18	858.51	62530	62530
628.68	858.01	62055	62055
629.18	857.51	62180	62180
629.68	857.01	62030	62030
630.18	856.51	62145	62145
630.68	856.01	62165	62165
631.18	855.51	62485	62485
631.68	855.01	62800	62800
632.18	854.51	63085	63085
632.68	854.01	62980	62980
633.18	853.51	63055	63055
633.68	853.01	62685	62685
634.18	852.51	63185	63185
634.68	852.01	62315	62315
635.18	851.51	62320	62320
635.68	851.01	62420	62420
636.18	850.51	61650	61650
636.68	850.01	61405	61405
637.18	849.51	61560	61560
637.68	849.01	61855	61855
638.18	848.51	61945	61945
638.68	848.01	61920	61920
639.18	847.51	62755	62755
639.68	847.01	62440	62440
640.18	846.51	61655	61655
640.68	846.01	61960	61960
641.18	845.51	61925	61925
641.68	845.01	61805	61805
642.18	844.51	62085	62085
642.68	844.01	62070	62070
643.18	843.51	61580	61580
643.68	843.01	61340	61340
644.18	842.51	61880	61880
644.68	842.01	61590	61590
645.18	841.51	61630	61630
645.68	841.01	62215	62215
646.18	840.51	61785	61785
646.68	840.01	61490	61490
647.18	839.51	61805	61805
647.68	839.01	62100	62100
648.18	838.51	61505	61505
648.68	838.01	61410	61410
649.18	837.51	60955	60955
649.68	837.01	61200	61200
650.18	836.51	61480	61480
650.68	836.01	62470	62470
651.18	835.51	62065	62065
651.68	835.01	61095	61095
652.18	834.51	61035	61035
652.68	834.01	60965	60965
653.18	833.51	60870	60870
653.68	833.01	61655	61655
654.18	832.51	61575	61575
654.68	832.01	60260	60260
655.18	831.51	59900	59900
655.68	831.01	59495	59495
656.18	830.51	60555	60555
656.68	830.01	60860	60860
657.18	829.51	60460	60460
657.68	829.01	60100	60100
658.18	828.51	60145	60145
658.68	828.01	60235	60235
659.18	827.51	60675	60675
659.68	827.01	60875	60875
660.18	826.51	60740	60740
660.68	826.01	61630	61630
661.18	825.51	60415	60415
661.68	825.01	60030	60030
662.18	824.51	60575	60575
662.68	824.01	60735	60735
663.18	823.51	60760	60760
663.68	823.01	60285	60285
664.18	822.51	61595	61595
664.68	822.01	60380	60380
665.18	821.51	60665	60665
665.68	821.01	59925	59925
666.18	820.51	60025	60025
666.68	820.01	59925	59925
667.18	819.51	60690	60690
667.68	819.01	60385	60385
668.18	818.51	60390	60390
668.68	818.01	60390	60390
669.18	817.51	60340	60340
669.68	817.01	60420	60420
670.18	816.51	61130	61130
670.68	816.01	61025	61025
671.18	815.51	60855	60855
671.68	815.01	60720	60720
672.18	814.51	60640	60640
672.68	814.01	60675	60675
673.18	813.51	59620	59620
673.68	813.01	61200	61200
674.18	812.51	60665	60665
674.68	812.01	61035	61035
675.18	811.51	60665	60665
675.68	811.01	60925	60925
676.18	810.51	61285	61285
676.68	810.01	61005	61005
677.18	809.51	60690	60690
677.68	809.01	61280	61280
678.18	808.51	60520	60520
678.68	808.01	61095	61095
679.18	807.51	61930	61930
679.68	807.01	60700	60700
680.18	806.51	60550	60550
680.68	806.01	60295	60295
681.18	805.51	59855	59855
681.68	805.01	60610	60610
682.18	804.51	61490	61490
682.68	804.01	60570	60570
683.18	803.51	61085	61085
683.68	803.01	61290	61290
684.18	802.51	60780	60780
684.68	802.01	60205	60205
685.18	801.51	60710	60710
685.68	801.01	61380	61380
686.18	800.51	60165	60165
686.68	800.01	61220	61220
687.18	799.51	61200	61200
687.68	799.01	60845	60845
688.18	798.51	60535	60535
688.68	798.01	60160	60160
689.18	797.51	61210	61210
689.68	797.01	61780	61780
690.18	796.51	61955	61955
690.68	796.01	61320	61320
691.18	795.51	61105	61105
691.68	795.01	61320	61320
692.18	794.51	61500	61500
692.68	794.01	61265	61265
693.18	793.51	60335	60335
693.68	793.01	61025	61025
694.18	792.51	60645	60645
694.68	792.01	61025	61025
695.18	791.51	61720	61720
695.68	791.01	60820	60820
696.18	790.51	61300	61300
696.68	790.01	61770	61770
697.18	789.51	62240	62240
697.68	789.01	61800	61800
698.18	788.51	62030	62030
698.68	788.01	62240	62240
699.18	787.51	61640	61640
699.68	787.01	61785	61785
700.18	786.51	61970	61970
700.68	786.01	62020	62020
701.18	785.51	62260	62260
701.68	785.01	61740	61740
702.18	784.51	61540	61540
702.68	784.01	61835	61835
703.18	783.51	62480	62480
703.68	783.01	62150	62150
704.18	782.51	61630	61630
704.68	782.01	61825	61825
705.18	781.51	61385	61385
705.68	781.01	61590	61590
706.18	780.51	61560	61560
706.68	780.01	62285	62285
707.18	779.51	61725	61725
707.68	779.01	61290	61290
708.18	778.51	61285	61285
708.68	778.01	62065	62065
709.18	777.51	60925	60925
709.68	777.01	61480	61480
710.18	776.51	61555	61555
710.68	776.01	61085	61085
711.18	775.51	60655	60655
711.68	775.01	60920	60920
712.18	774.51	61630	61630
712.68	774.01	61090	61090
713.18	773.51	60970	60970
713.68	773.01	61345	61345
714.18	772.51	61785	61785
714.68	772.01	61280	61280
715.18	771.51	60695	60695
715.68	771.01	61700	61700
716.18	770.51	61240	61240
716.68	770.01	60980	60980
717.18	769.51	61310	61310
717.68	769.01	61070	61070
718.18	768.51	61560	61560
718.68	768.01	60855	60855
719.18	767.51	60945	60945
719.68	767.01	61430	61430
720.18	766.51	61360	61360
720.68	766.01	60915	60915
721.18	765.51	60915	60915
721.68	765.01	60915	60915
722.18	764.51	61210	61210
722.68	764.01	61100	61100
723.18	763.51	61180	61180
723.68	763.01	59945	59945
724.18	762.51	60440	60440
724.68	762.01	60740	60740
725.18	761.51	59945	59945
725.68	761.01	60410	60410
726.18	760.51	60220	60220
726.68	760.01	60405	60405
727.18	759.51	60830	60830
727.68	759.01	60595	60595
728.18	758.51	60965	60965
728.68	758.01	61060	61060
729.18	757.51	60770	60770
729.68	757.01	60935	60935
730.18	756.51	61845	61845
730.68	756.01	61650	61650
731.18	755.51	61075	61075
731.68	755.01	60845	60845
732.18	754.51	60475	60475
732.68	754.01	61215	61215
733.18	753.51	60365	60365
733.68	753.01	60370	60370
734.18	752.51	61305	61305
734.68	752.01	61660	61660
735.18	751.51	61030	61030
735.68	751.01	60820	60820
736.18	750.51	60890	60890
736.68	750.01	61635	61635
737.18	749.51	61655	61655
737.68	749.01	61450	61450
738.18	748.51	60970	60970
738.68	748.01	60765	60765
739.18	747.51	61415	61415
739.68	747.01	61090	61090
740.18	746.51	60710	60710
740.68	746.01	61140	61140
741.18	745.51	61615	61615
741.68	745.01	61810	61810
742.18	744.51	61375	61375
742.68	744.01	61465	61465
743.18	743.51	62220	62220
743.68	743.01	61695	61695
744.18	742.51	60590	60590
744.68	742.01	61550	61550
745.18	741.51	62425	62425
745.68	741.01	61750	61750
746.18	740.51	61195	61195
746.68	740.01	60660	60660
747.18	739.51	61320	61320
747.68	739.01	60630	60630
748.18	738.51	61485	61485
748.68	738.01	61885	61885
749.18	737.51	61385	61385
749.68	737.01	61180	61180
750.18	736.51	60960	60960
750.68	736.01	60795	60795
751.18	735.51	61795	61795
751.68	735.01	61585	61585
752.18	734.51	60875	60875
752.68	734.01	61605	61605
753.18	733.51	61460	61460
753.68	733.01	61300	61300
754.18	732.51	60955	60955
754.68	732.01	61460	61460
755.18	731.51	60885	60885
755.68	731.01	61210	61210
756.18	730.51	61930	61930
756.68	730.01	61375	61375
757.18	729.51	61605	61605
757.68	729.01	60910	60910
758.18	728.51	61045	61045
758.68	728.01	61755	61755
759.18	727.51	62845	62845
759.68	727.01	62965	62965
760.18	726.51	62165	62165
760.68	726.01	61690	61690
761.18	725.51	61785	61785
761.68	725.01	62940	62940
762.18	724.51	61710	61710
762.68	724.01	61530	61530
763.18	723.51	61665	61665
763.68	723.01	61640	61640
764.18	722.51	60840	60840
764.68	722.01	60000	60000
765.18	721.51	61100	61100
765.68	721.01	60690	60690
766.18	720.51	61175	61175
766.68	720.01	61315	61315
767.18	719.51	60475	60475
767.68	719.01	60245	60245
768.18	718.51	60430	60430
768.68	718.01	60560	60560
769.18	717.51	60380	60380
769.68	717.01	59715	59715
770.18	716.51	60860	60860
770.68	716.01	59620	59620
771.18	715.51	59375	59375
771.68	715.01	60850	60850
772.18	714.51	60010	60010
772.68	714.01	61100	61100
773.18	713.51	60880	60880
773.68	713.01	61550	61550
774.18	712.51	62030	62030
774.68	712.01	63110	63110
775.18	711.51	62470	62470
775.68	711.01	62605	62605
776.18	710.51	61695	61695
776.68	710.01	61695	61695
777.18	709.51	60385	60385
777.68	709.01	59555	59555
778.18	708.51	58855	58855
778.68	708.01	58290	58290
779.18	707.51	58270	58270
779.68	707.01	58690	58690
780.18	706.51	58035	58035
780.68	706.01	57820	57820
781.18	705.51	56510	56510
781.68	705.01	56935	56935
782.18	704.51	57155	57155
782.68	704.01	57595	57595
783.18	703.51	57425	57425
783.68	703.01	57005	57005
784.18	702.51	56640	56640
784.68	702.01	56560	56560
785.18	701.51	57165	57165
785.68	701.01	57110	57110
786.18	700.51	56890	56890
786.68	700.01	56770	56770
787.18	699.51	57665	57665
787.68	699.01	56515	56515
788.18	698.51	56430	56430
788.68	698.01	56815	56815
789.18	697.51	56735	56735
789.68	697.01	56640	56640
790.18	696.51	56270	56270
790.68	696.01	56750	56750
791.18	695.51	56750	56750
791.68	695.01	57785	57785
792.18	694.51	57665	57665
792.68	694.01	57240	57240
793.18	693.51	58060	58060
793.68	693.01	57620	57620
794.18	692.51	56830	56830
794.68	692.01	57450	57450
795.18	691.51	56470	56470
795.68	691.01	56655	56655
796.18	690.51	56615	56615
796.68	690.01	56975	56975
797.18	689.51	56630	56630
797.68	689.01	56895	56895
798.18	688.51	56775	56775
798.68	688.01	57160	57160
799.18	687.51	57145	57145
799.68	687.01	57645	57645
800.18	686.51	56600	56600
800.68	686.01	56465	56465
801.18	685.51	56685	56685
801.68	685.01	56770	56770
802.18	684.51	56535	56535
802.68	684.01	57335	57335
803.18	683.51	57300	57300
803.68	683.01	56960	56960
804.18	682.51	56720	56720
804.68	682.01	56985	56985
805.18	681.51	57530	57530
805.68	681.01	57165	57165
806.18	680.51	57000	57000
806.68	680.01	56915	56915
807.18	679.51	57090	57090
807.68	679.01	56860	56860
808.18	678.51	57405	57405
808.68	678.01	58000	58000
809.18	677.51	57705	57705
809.68	677.01	57570	57570
810.18	676.51	57115	57115
810.68	676.01	57250	57250
811.18	675.51	57425	57425
811.68	675.01	58320	58320
812.18	674.51	57690	57690
812.68	674.01	57535	57535
813.18	673.51	57400	57400
813.68	673.01	57770	57770
814.18	672.51	57030	57030
814.68	672.01	58060	58060
815.18	671.51	58150	58150
815.68	671.01	58725	58725
816.18	670.51	58140	58140
816.68	670.01	58145	58145
817.18	669.51	57255	57255
817.68	669.01	57805	57805
818.18	668.51	58070	58070
818.68	668.01	57910	57910
819.18	667.51	57540	57540
819.68	667.01	58285	58285
820.18	666.51	58660	58660
820.68	666.01	57360	57360
821.18	665.51	57945	57945
821.68	665.01	58495	58495
822.18	664.51	57940	57940
822.68	664.01	57845	57845
823.18	663.51	58375	58375
823.68	663.01	58060	58060
824.18	662.51	58945	58945
824.68	662.01	58290	58290
825.18	661.51	58850	58850
825.68	661.01	57965	57965
826.18	660.51	57850	57850
826.68	660.01	58730	58730
827.18	659.51	58295	58295
827.68	659.01	58050	58050
828.18	658.51	58375	58375
828.68	658.01	58470	58470
829.18	657.51	58415	58415
829.68	657.01	58065	58065
830.18	656.51	58575	58575
830.68	656.01	58815	58815
831.18	655.51	57960	57960
831.68	655.01	58570	58570
832.18	654.51	58290	58290
832.68	654.01	58325	58325
833.18	653.51	58700	58700
833.68	653.01	57660	57660
834.18	652.51	58870	58870
834.68	652.01	59105	59105
835.18	651.51	58315	58315
835.68	651.01	58360	58360
836.18	650.51	58810	58810
836.68	650.01	59120	59120
837.18	649.51	58880	58880
837.68	649.01	58205	58205
838.18	648.51	59120	59120
838.68	648.01	59105	59105
839.18	647.51	59695	59695
839.68	647.01	59645	59645
840.18	646.51	59140	59140
840.68	646.01	59765	59765
841.18	645.51	59860	59860
841.68	645.01	59330	59330
842.18	644.51	59480	59480
842.68	644.01	58915	58915
843.18	643.51	59125	59125
843.68	643.01	59330	59330
844.18	642.51	60075	60075
844.68	642.01	59450	59450
845.18	641.51	59090	59090
845.68	641.01	58975	58975
846.18	640.51	59870	59870
846.68	640.01	60190	60190
847.18	639.51	60615	60615
847.68	639.01	59830	59830
848.18	638.51	59200	59200
848.68	638.01	59380	59380
849.18	637.51	60045	60045
849.68	637.01	59875	59875
850.18	636.51	59290	59290
850.68	636.01	58285	58285
851.18	635.51	59530	59530
851.68	635.01	59470	59470
852.18	634.51	59565	59565
852.68	634.01	60155	60155
853.18	633.51	58430	58430
853.68	633.01	59395	59395
854.18	632.51	59210	59210
854.68	632.01	59175	59175
855.18	631.51	59515	59515
855.68	631.01	59390	59390
856.18	630.51	58700	58700
856.68	630.01	59210	59210
857.18	629.51	59295	59295
857.68	629.01	59595	59595
858.18	628.51	59820	59820
858.68	628.01	59035	59035
859.18	627.51	58990	58990
859.68	627.01	59900	59900
860.18	626.51	58330	58330
860.68	626.01	58190	58190
861.18	625.51	59130	59130
861.68	625.01	59760	59760
862.18	624.51	60375	60375
862.68	624.01	60375	60375
863.18	623.51	60395	60395
863.68	623.01	60425	60425
864.18	622.51	60425	60425
864.68	622.01	60475	60475
865.18	621.51	60020	60020
865.68	621.01	59790	59790
866.18	620.51	59960	59960
866.68	620.01	60200	60200
867.18	619.51	59925	59925
867.68	619.01	59370	59370
868.18	618.51	60370	60370
868.68	618.01	60145	60145
869.18	617.51	61390	61390
869.68	617.01	60265	60265
870.18	616.51	59810	59810
870.68	616.01	59180	59180
871.18	615.51	60505	60505
871.68	615.01	59915	59915
872.18	614.51	59440	59440
872.68	614.01	60340	60340
873.18	613.51	59635	59635
873.68	613.01	59940	59940
874.18	612.51	60110	60110
874.68	612.01	61285	61285
875.18	611.51	61225	61225
875.68	611.01	60350	60350
876.18	610.51	60400	60400
876.68	610.01	60110	60110
877.18	609.51	60630	60630
877.68	609.01	60790	60790
878.18	608.51	60790	60790
878.68	608.01	60935	60935
879.18	607.51	60815	60815
879.68	607.01	60560	60560
880.18	606.51	60640	60640
880.68	606.01	60205	60205
881.18	605.51	60620	60620
881.68	605.01	60570	60570
882.18	604.51	60715	60715
882.68	604.01	60965	60965
883.18	603.51	60550	60550
883.68	603.01	61040	61040
884.18	602.51	61240	61240
884.68	602.01	60230	60230
885.18	601.51	59825	59825
885.68	601.01	61645	61645
886.18	600.51	61640	61640
886.68	600.01	60465	60465
887.18	599.51	61190	61190
887.68	599.01	60460	60460
888.18	598.51	60655	60655
888.68	598.01	60955	60955
889.18	597.51	60515	60515
889.68	597.01	61150	61150
890.18	596.51	61505	61505
890.68	596.01	61565	61565
891.18	595.51	61875	61875
891.68	595.01	60775	60775
892.18	594.51	61290	61290
892.68	594.01	60955	60955
893.18	593.51	61035	61035
893.68	593.01	61975	61975
894.18	592.51	60695	60695
894.68	592.01	60980	60980
895.18	591.51	61860	61860
895.68	591.01	62325	62325
896.18	590.51	61320	61320
896.68	590.01	61035	61035
897.18	589.51	61900	61900
897.68	589.01	62040	62040
898.18	588.51	62450	62450
898.68	588.01	62370	62370
899.18	587.51	62640	62640
899.68	587.01	62645	62645
900.18	586.51	62745	62745
900.68	586.01	62700	62700
901.18	585.51	62375	62375
901.68	585.01	63385	63385
902.18	584.51	61825	61825
902.68	584.01	61440	61440
903.18	583.51	61770	61770
903.68	583.01	61095	61095
904.18	582.51	61405	61405
904.68	582.01	61175	61175
905.18	581.51	61955	61955
905.68	581.01	61450	61450
906.18	580.51	61735	61735
906.68	580.01	61610	61610
907.18	579.51	61645	61645
907.68	579.01	61995	61995
908.18	578.51	62125	62125
908.68	578.01	62605	62605
909.18	577.51	63740	63740
909.68	577.01	64285	64285
910.18	576.51	64325	64325
910.68	576.01	64030	64030
911.18	575.51	63595	63595
911.68	575.01	62670	62670
912.18	574.51	61920	61920
912.68	574.01	61220	61220
913.18	573.51	61010	61010
913.68	573.01	60185	60185
914.18	572.51	60185	60185
914.68	572.01	59310	59310
915.18	571.51	59475	59475
915.68	571.01	59810	59810
916.18	570.51	60025	60025
916.68	570.01	59840	59840
917.18	569.51	59730	59730
917.68	569.01	60360	60360
918.18	568.51	59785	59785
918.68	568.01	60390	60390
919.18	567.51	60200	60200
919.68	567.01	59990	59990
920.18	566.51	60495	60495
920.68	566.01	60590	60590
921.18	565.51	60050	60050
921.68	565.01	59845	59845
922.18	564.51	59860	59860
922.68	564.01	60330	60330
923.18	563.51	60760	60760
923.68	563.01	61095	61095
924.18	562.51	61795	61795
924.68	562.01	61175	61175
925.18	561.51	62760	62760
925.68	561.01	62650	62650
926.18	560.51	62895	62895
926.68	560.01	62960	62960
927.18	559.51	63460	63460
927.68	559.01	64575	64575
928.18	558.51	64135	64135
928.68	558.01	64440	64440
929.18	557.51	64400	64400
929.68	557.01	65845	65845
930.18	556.51	65165	65165
930.68	556.01	64310	64310
931.18	555.51	64720	64720
931.68	555.01	64105	64105
932.18	554.51	63665	63665
932.68	554.01	63485	63485
933.18	553.51	62950	62950
933.68	553.01	62045	62045
934.18	552.51	61350	61350
934.68	552.01	60220	60220
935.18	551.51	60510	60510
935.68	551.01	60340	60340
936.18	550.51	58655	58655
936.68	550.01	58990	58990
937.18	549.51	58975	58975
937.68	549.01	57380	57380
938.18	548.51	57235	57235
938.68	548.01	56035	56035
939.18	547.51	54575	54575
939.68	547.01	54485	54485
940.18	546.51	54780	54780
940.68	546.01	54450	54450
941.18	545.51	52945	52945
941.68	545.01	51845	51845
942.18	544.51	51350	51350
942.68	544.01	50565	50565
943.18	543.51	50440	50440
943.68	543.01	49540	49540
944.18	542.51	48200	48200
944.68	542.01	48350	48350
945.18	541.51	47980	47980
945.68	541.01	48370	48370
946.18	540.51	47655	47655
946.68	540.01	47370	47370
947.18	539.51	48255	48255
947.68	539.01	47430	47430
948.18	538.51	47540	47429
948.68	538.01	48275	47420.9
949.18	537.51	49410	47401.9
949.68	537.01	50170	47375.5
950.18	536.51	52380	47327.7
950.68	536.01	54855	47255.8
951.18	535.51	60605	47128.4
951.68	535.01	70295	46907.3
952.18	534.51	84480	46548.7
952.68	534.01	105865	45982.5
953.18	533.51	133770	45144.5
953.68	533.01	162660	44022.8
954.18	532.51	181485	42710.8
954.68	532.01	180880	41391.9
955.18	531.51	159960	40260.2
955.68	531.01	128585	39417.1
956.18	530.51	98820	38850.1
956.68	530.01	76105	38494.5
957.18	529.51	60480	38284.6
957.68	529.01	50480	38168.2
958.18	528.51	43855	38114
958.68	528.01	41425	38082.3
959.18	527.51	39590	38068
959.68	527.01	38930	38059.7
960.18	526.51	38555	38055
960.68	526.01	38055	38055
961.18	525.51	38090	38090
961.68	525.01	38105	38105
962.18	524.51	37735	37735
962.68	524.01	37660	37660
963.18	523.51	37660	37660
963.68	523.01	37335	37335
964.18	522.51	37860	37860
964.68	522.01	37870	37870
965.18	521.51	37245	37245
965.68	521.01	37465	37465
966.18	520.51	37060	37060
966.68	520.01	37455	37455
967.18	519.51	37415	37415
967.68	519.01	37360	37360
968.18	518.51	37385	37385
968.68	518.01	37820	37820
969.18	517.51	37815	37815
969.68	517.01	37425	37425
970.18	516.51	37555	37555
970.68	516.01	37090	37090
971.18	515.51	37565	37565
971.68	515.01	37500	37500
972.18	514.51	37610	37610
972.68	514.01	37660	37660
973.18	513.51	37800	37800
973.68	513.01	38075	38075
974.18	512.51	37485	37485
974.68	512.01	38810	38810
975.18	511.51	38300	38300
975.68	511.01	37865	37865
976.18	510.51	37650	37650
976.68	510.01	37500	37500
977.18	509.51	37110	37110
977.68	509.01	37340	37340
978.18	508.51	37700	37700
978.68	508.01	37415	37415
979.18	507.51	38010	38010
979.68	507.01	37600	37600
980.18	506.51	38015	38015
980.68	506.01	38090	38090
981.18	505.51	37655	37655
981.68	505.01	38065	38065
982.18	504.51	37555	37555
982.68	504.01	37385	37385
983.18	503.51	37730	37730
983.68	503.01	37825	37825
984.18	502.51	37960	37960
984.68	502.01	37775	37775
985.18	501.51	38575	38575
985.68	501.01	38410	38410
986.18	500.51	38825	38825
986.68	500.01	38060	38060
987.18	499.51	37840	37840
987.68	499.01	38320	38320
988.18	498.51	39045	39045
988.68	498.01	39190	39190
989.18	497.51	38780	38780
989.68	497.01	38640	38640
990.18	496.51	39290	39290
990.68	496.01	38245	38245
991.18	495.51	38155	38155
991.68	495.01	38705	38705
992.18	494.51	38875	38875
992.68	494.01	38465	38465
993.18	493.51	38335	38335
993.68	493.01	38695	38695
994.18	492.51	38065	38065
994.68	492.01	38400	38400
995.18	491.51	38670	38670
995.68	491.01	38420	38420
996.18	490.51	38630	38630
996.68	490.01	38735	38735
997.18	489.51	38465	38465
997.68	489.01	38550	38550
998.18	488.51	38280	38280
998.68	488.01	38635	38635
999.18	487.51	39120	39120
999.68	487.01	39140	39140
1000.18	486.51	38940	38940
1000.68	486.01	39605	39605
1001.18	485.51	39100	39100
1001.68	485.01	38345	38345
1002.18	484.51	38685	38685
1002.68	484.01	38785	38785
1003.18	483.51	37695	37695
1003.68	483.01	37850	37850
1004.18	482.51	38500	38500
1004.68	482.01	39040	39040
1005.18	481.51	39335	39335
1005.68	481.01	39085	39085
1006.18	480.51	39235	39235
1006.68	480.01	38625	38625
1007.18	479.51	38950	38950
1007.68	479.01	39390	39390
1008.18	478.51	39425	39425
1008.68	478.01	38110	38110
1009.18	477.51	38710	38710
1009.68	477.01	39055	39055
1010.18	476.51	39105	39105
1010.68	476.01	39065	39065
1011.18	475.51	39435	39435
1011.68	475.01	39505	39505
1012.18	474.51	39065	39065
1012.68	474.01	39265	39265
1013.18	473.51	38995	38995
1013.68	473.01	39480	39480
1014.18	472.51	39365	39365
1014.68	472.01	39030	39030
1015.18	471.51	39520	39520
1015.68	471.01	38695	38695
1016.18	470.51	39725	39725
1016.68	470.01	39735	39735
1017.18	469.51	39140	39140
1017.68	469.01	39510	39510
1018.18	468.51	38695	38695
1018.68	468.01	39105	39105
1019.18	467.51	39455	39455
1019.68	467.01	38610	38610
1020.18	466.51	39295	39295
1020.68	466.01	38880	38880
1021.18	465.51	39185	39185
1021.68	465.01	39920	39920
1022.18	464.51	39965	39965
1022.68	464.01	40500	40500
1023.18	463.51	40405	40405
1023.68	463.01	40305	40305
1024.18	462.51	39705	39705
1024.68	462.01	39820	39820
1025.18	461.51	39825	39825
1025.68	461.01	40075	40075
1026.18	460.51	40440	40440
1026.68	460.01	40300	40300
1027.18	459.51	40185	40185
1027.68	459.01	40630	40630
1028.18	458.51	40570	40570
1028.68	458.01	40670	40670
1029.18	457.51	40325	40325
1029.68	457.01	40045	40045
1030.18	456.51	39970	39970
1030.68	456.01	40160	40160
1031.18	455.51	40410	40410
1031.68	455.01	40750	40750
1032.18	454.51	40395	40395
1032.68	454.01	40485	40485
1033.18	453.51	39470	39470
1033.68	453.01	39340	39340
1034.18	452.51	39700	39700
1034.68	452.01	40290	40290
1035.18	451.51	40445	40445
1035.68	451.01	40295	40295
1036.18	450.51	40030	40030
1036.68	450.01	39995	39995
1037.18	449.51	39850	39850
1037.68	449.01	40150	40150
1038.18	448.51	39550	39550
1038.68	448.01	39900	39900
1039.18	447.51	40615	40615
1039.68	447.01	40890	40890
1040.18	446.51	40575	40575
1040.68	446.01	40840	40840
1041.18	445.51	40360	40360
1041.68	445.01	40350	40350
1042.18	444.51	40480	40480
1042.68	444.01	40900	40900
1043.18	443.51	40790	40790
1043.68	443.01	41060	41060
1044.18	442.51	41580	41580
1044.68	442.01	41280	41280
1045.18	441.51	41195	41195
1045.68	441.01	41710	41710
1046.18	440.51	41980	41980
1046.68	440.01	42040	42040
1047.18	439.51	42145	42145
1047.68	439.01	42115	42115
1048.18	438.51	41990	41990
1048.68	438.01	41665	41665
1049.18	437.51	41110	41110
1049.68	437.01	40795	40795
1050.18	436.51	40965	40965
1050.68	436.01	41025	41025
1051.18	435.51	40980	40980
1051.68	435.01	40815	40815
1052.18	434.51	41080	41080
1052.68	434.01	41340	41340
1053.18	433.51	40795	40795
1053.68	433.01	40350	40350
1054.18	432.51	41450	41450
1054.68	432.01	41300	41300
1055.18	431.51	41505	41505
1055.68	431.01	40650	40650
1056.18	430.51	41025	41025
1056.68	430.01	41370	41370
1057.18	429.51	41330	41330
1057.68	429.01	41695	41695
1058.18	428.51	42000	42000
1058.68	428.01	42070	42070
1059.18	427.51	41605	41605
1059.68	427.01	41125	41125
1060.18	426.51	41065	41065
1060.68	426.01	41005	41005
1061.18	425.51	40960	40960
1061.68	425.01	41725	41725
1062.18	424.51	40510	40510
1062.68	424.01	40020	40020
1063.18	423.51	41145	41145
1063.68	423.01	42165	42165
1064.18	422.51	41835	41835
1064.68	422.01	41670	41670
1065.18	421.51	41530	41530
1065.68	421.01	41700	41700
1066.18	420.51	41965	41965
1066.68	420.01	41340	41340
1067.18	419.51	41425	41425
1067.68	419.01	41685	41685
1068.18	418.51	40825	40825
1068.68	418.01	40735	40735
1069.18	417.51	42055	42055
1069.68	417.01	41035	41035
1070.18	416.51	41275	41275
1070.68	416.01	41170	41170
1071.18	415.51	41685	41685
1071.68	415.01	41700	41700
1072.18	414.51	41870	41870
1072.68	414.01	42090	42090
1073.18	413.51	41755	41755
1073.68	413.01	42225	42225
1074.18	412.51	41660	41660
1074.68	412.01	41670	41670
1075.18	411.51	42000	42000
1075.68	411.01	41690	41690
1076.18	410.51	41745	41745
1076.68	410.01	42280	42280
1077.18	409.51	41825	41825
1077.68	409.01	41275	41275
1078.18	408.51	41775	41775
1078.68	408.01	42520	42520
1079.18	407.51	42495	42495
1079.68	407.01	42230	42230
1080.18	406.51	42130	42130
1080.68	406.01	42625	42625
1081.18	405.51	43000	43000
1081.68	405.01	43020	43020
1082.18	404.51	42410	42410
1082.68	404.01	42810	42810
1083.18	403.51	42650	42650
1083.68	403.01	43605	42647.4
1084.18	402.51	43815	42644.3
1084.68	402.01	43815	42641.2
1085.18	401.51	44910	42635.1
1085.68	401.01	45230	42628.1
1086.18	400.51	45560	42620.2
1086.68	400.01	45470	42612.6
1087.18	399.51	45645	42604.4
1087.68	399.01	45655	42596.2
1088.18	398.51	44875	42590.1
1088.68	398.01	43985	42586.4
1089.18	397.51	43095	42585
1089.68	397.01	42585	42585
1090.18	396.51	42810	42810
1090.68	396.01	42690	42690
1091.18	395.51	42200	42200
1091.68	395.01	42710	42710
1092.18	394.51	42540	42540
1092.68	394.01	42560	42560
1093.18	393.51	42255	42255
1093.68	393.01	42205	42205
1094.18	392.51	42805	42805
1094.68	392.01	42760	42760
1095.18	391.51	42610	42610
1095.68	391.01	42820	42820
1096.18	390.51	43575	43575
1096.68	390.01	43505	43505
1097.18	389.51	42805	42805
1097.68	389.01	42820	42820
1098.18	388.51	43045	43045
1098.68	388.01	42855	42855
1099.18	387.51	43645	43645
1099.68	387.01	44255	44255
1100.18	386.51	43400	43400
1100.68	386.01	43140	43140
1101.18	385.51	43470	43470
1101.68	385.01	43845	43845
1102.18	384.51	42950	42950
1102.68	384.01	43565	43565
1103.18	383.51	42960	42960
1103.68	383.01	43550	43550
1104.18	382.51	43325	43325
1104.68	382.01	43685	43685
1105.18	381.51	43765	43765
1105.68	381.01	42835	42835
1106.18	380.51	43670	43670
1106.68	380.01	43800	43800
1107.18	379.51	43525	43525
1107.68	379.01	43880	43880
1108.18	378.51	44155	44155
1108.68	378.01	44345	44345
1109.18	377.51	43350	43350
1109.68	377.01	43470	43470
1110.18	376.51	44250	44250
1110.68	376.01	44115	44115
1111.18	375.51	44150	44150
1111.68	375.01	43780	43780
1112.18	374.51	44115	44115
1112.68	374.01	44205	44205
1113.18	373.51	43720	43720
1113.68	373.01	43900	43900
1114.18	372.51	44100	44100
1114.68	372.01	43685	43685
1115.18	371.51	44770	44770
1115.68	371.01	44735	44735
1116.18	370.51	44195	44195
1116.68	370.01	44520	44520
1117.18	369.51	44805	44805
1117.68	369.01	44085	44085
1118.18	368.51	45155	45155
1118.68	368.01	44340	44340
1119.18	367.51	43650	43650
1119.68	367.01	44720	44720
1120.18	366.51	45045	45045
1120.68	366.01	44280	44280
1121.18	365.51	45095	45095
1121.68	365.01	44635	44635
1122.18	364.51	44595	44595
1122.68	364.01	44530	44530
1123.18	363.51	44475	44475
1123.68	363.01	44505	44505
1124.18	362.51	44060	44060
1124.68	362.01	44170	44170
1125.18	361.51	44900	44900
1125.68	361.01	44145	44145
1126.18	360.51	44775	44775
1126.68	360.01	44680	44680
1127.18	359.51	44535	44535
1127.68	359.01	45855	45855
1128.18	358.51	45745	45745
1128.68	358.01	44900	44900
1129.18	357.51	44940	44940
1129.68	357.01	45375	45375
1130.18	356.51	45130	45130
1130.68	356.01	45040	45040
1131.18	355.51	46265	46265
1131.68	355.01	45645	45645
1132.18	354.51	46020	46020
1132.68	354.01	46175	46175
1133.18	353.51	46185	46185
1133.68	353.01	47435	47435
1134.18	352.51	47810	47810
1134.68	352.01	48115	48115
1135.18	351.51	48765	48765
1135.68	351.01	47975	47975
1136.18	350.51	47610	47610
1136.68	350.01	47535	47535
1137.18	349.51	47775	47775
1137.68	349.01	48445	48445
1138.18	348.51	49425	49425
1138.68	348.01	50480	50480
1139.18	347.51	50305	50305
1139.68	347.01	49545	49545
1140.18	346.51	48040	48040
1140.68	346.01	46910	46910
1141.18	345.51	45945	45945
1141.68	345.01	46440	46440
1142.18	344.51	45990	45990
1142.68	344.01	45410	45410
1143.18	343.51	45595	45595
1143.68	343.01	46095	46095
1144.18	342.51	45505	45505
1144.68	342.01	46265	46265
1145.18	341.51	46235	46235
1145.68	341.01	45625	45625
1146.18	340.51	46215	46215
1146.68	340.01	47140	47140
1147.18	339.51	46680	46680
1147.68	339.01	46745	46745
1148.18	338.51	46575	46575
1148.68	338.01	46645	46645
1149.18	337.51	45785	45785
1149.68	337.01	45625	45625
1150.18	336.51	46385	46385
1150.68	336.01	45805	45805
1151.18	335.51	45975	45975
1151.68	335.01	44995	44995
1152.18	334.51	45505	45505
1152.68	334.01	46250	46250
1153.18	333.51	46040	46040
1153.68	333.01	45550	45550
1154.18	332.51	45405	45405
1154.68	332.01	45205	45205
1155.18	331.51	45250	45250
1155.68	331.01	45930	45930
1156.18	330.51	45355	45355
1156.68	330.01	45820	45820
1157.18	329.51	44865	44865
1157.68	329.01	45530	45530
1158.18	328.51	46315	46315
1158.68	328.01	46135	46135
1159.18	327.51	45975	45975
1159.68	327.01	45910	45910
1160.18	326.51	45790	45790
1160.68	326.01	45595	45595
1161.18	325.51	45605	45605
1161.68	325.01	46475	46475
1162.18	324.51	46570	46570
1162.68	324.01	47125	47125
1163.18	323.51	47215	47215
1163.68	323.01	46940	46940
1164.18	322.51	47565	47565
1164.68	322.01	47730	47730
1165.18	321.51	47790	47790
1165.68	321.01	48200	48200
1166.18	320.51	48170	48170
1166.68	320.01	48375	48375
1167.18	319.51	49380	49380
1167.68	319.01	48950	48950
1168.18	318.51	49435	49435
1168.68	318.01	49815	49815
1169.18	317.51	48895	48895
1169.68	317.01	49735	49735
1170.18	316.51	50725	50725
1170.68	316.01	49960	49960
1171.18	315.51	50255	50255
1171.68	315.01	50690	50690
1172.18	314.51	50395	50395
1172.68	314.01	50405	50405
1173.18	313.51	51520	51520
1173.68	313.01	51835	51835
1174.18	312.51	51835	51835
1174.68	312.01	50340	50340
1175.18	311.51	50595	50595
1175.68	311.01	51110	51110
1176.18	310.51	50990	50990
1176.68	310.01	51450	51450
1177.18	309.51	51625	51625
1177.68	309.01	51820	51820
1178.18	308.51	51370	51370
1178.68	308.01	52275	52275
1179.18	307.51	52560	52560
1179.68	307.01	51510	51510
1180.18	306.51	50210	50210
1180.68	306.01	48400	48400
1181.18	305.51	46335	46335
1181.68	305.01	44760	44760
1182.18	304.51	42330	42330
1182.68	304.01	40865	40865
1183.18	303.51	40350	40350
1183.68	303.01	38760	38760
1184.18	302.51	38590	38590
1184.68	302.01	37125	37125
1185.18	301.51	36125	36125
1185.68	301.01	34855	34855
1186.18	300.51	33445	33445
1186.68	300.01	32645	32645
1187.18	299.51	32180	32180
1187.68	299.01	30765	30765
1188.18	298.51	30005	30005
1188.68	298.01	29170	29170
1189.18	297.51	28860	28860
1189.68	297.01	28080	28080
1190.18	296.51	27895	27895
1190.68	296.01	27225	27225
1191.18	295.51	27290	27290
1191.68	295.01	27550	27286.8
1192.18	294.51	27495	27284.3
1192.68	294.01	27975	27275.9
1193.18	293.51	28025	27266.8
1193.68	293.01	28290	27254.4
1194.18	292.51	29010	27233
1194.68	292.01	30460	27193.8
1195.18	291.51	32130	27133.7
1195.68	291.01	34330	27046.2
1196.18	290.51	37615	26917.7
1196.68	290.01	42175	26732.1
1197.18	289.51	47275	26482.3
1197.68	289.01	52780	26162.4
1198.18	288.51	58075	25774.3
1198.68	288.01	67265	25269.7
1199.18	287.51	83265	24564.3
1199.68	287.01	106310	23570.1
1200.18	286.51	127325	22308.3
1200.68	286.01	147015	20791.6
1201.18	285.51	166705	19017
1201.68	285.01	189580	16942.6
1202.18	284.51	202435	14686.6
1202.68	284.01	180840	12665.9
1203.18	283.51	132435	11209.2
1203.68	283.01	79135	10383.1
1204.18	282.51	36455	10066
1204.68	282.01	18405	9964.6
1205.18	281.51	13250	9924.64
1205.68	281.01	11790	9901.95
1206.18	280.51	11045	9888.05
1206.68	280.01	10550	9880
1207.18	279.51	9880	9880
1207.68	279.01	9275	9275
1208.18	278.51	9535	9535
1208.68	278.01	9235	9235
1209.18	277.51	8700	8700
1209.68	277.01	8545	8545
1210.18	276.51	8660	8660
1210.68	276.01	8775	8775
1211.18	275.51	8675	8675
1211.68	275.01	8825	8825
1212.18	274.51	8880	8880
1212.68	274.01	8800	8800
1213.18	273.51	8630	8630
1213.68	273.01	8605	8605
1214.18	272.51	8985	8985
1214.68	272.01	8785	8785
1215.18	271.51	9210	9210
1215.68	271.01	9210	9210
1216.18	270.51	9010	9010
1216.68	270.01	9185	9185
1217.18	269.51	9000	9000
1217.68	269.01	9050	9050
1218.18	268.51	8740	8740
1218.68	268.01	8650	8650
1219.18	267.51	8640	8640
1219.68	267.01	8830	8830
1220.18	266.51	8210	8210
1220.68	266.01	8865	8865
1221.18	265.51	8570	8570
1221.68	265.01	8490	8490
1222.18	264.51	8395	8395
1222.68	264.01	8605	8605
1223.18	263.51	8650	8650
1223.68	263.01	8575	8575
1224.18	262.51	8315	8315
1224.68	262.01	8515	8515
1225.18	261.51	8360	8360
1225.68	261.01	8705	8705
1226.18	260.51	8575	8575
1226.68	260.01	8390	8390
1227.18	259.51	8320	8320
1227.68	259.01	8635	8635
1228.18	258.51	8435	8435
1228.68	258.01	8615	8615
1229.18	257.51	8795	8795
1229.68	257.01	8705	8705
1230.18	256.51	8675	8675
1230.68	256.01	8800	8800
1231.18	255.51	8750	8750
1231.68	255.01	8530	8530
1232.18	254.51	8660	8660
1232.68	254.01	8405	8405
1233.18	253.51	8640	8640
1233.68	253.01	8425	8425
1234.18	252.51	8360	8360
1234.68	252.01	8400	8400
1235.18	251.51	8385	8385
1235.68	251.01	8525	8525
1236.18	250.51	8550	8550
1236.68	250.01	8490	8490
1237.18	249.51	8595	8595
1237.68	249.01	8555	8555
1238.18	248.51	8630	8630
1238.68	248.01	8550	8550
1239.18	247.51	8580	8580
1239.68	247.01	8295	8295
1240.18	246.51	8920	8920
1240.68	246.01	8515	8515
1241.18	245.51	8585	8585
1241.68	245.01	8580	8580
1242.18	244.51	8785	8785
1242.68	244.01	8910	8910
1243.18	243.51	8525	8525
1243.68	243.01	8790	8790
1244.18	242.51	8560	8560
1244.68	242.01	8600	8600
1245.18	241.51	8330	8330
1245.68	241.01	8550	8550
1246.18	240.51	8485	8485
1246.68	240.01	8505	8505
1247.18	239.51	8455	8455
1247.68	239.01	8755	8755
1248.18	238.51	8615	8615
1248.68	238.01	8360	8360
1249.18	237.51	8505	8505
1249.68	237.01	8530	8530
1250.18	236.51	8365	8365
1250.68	236.01	8565	8565
1251.18	235.51	9245	9245
1251.68	235.01	8720	8720
1252.18	234.51	8890	8890
1252.68	234.01	9390	9390
1253.18	233.51	9655	9655
1253.68	233.01	9780	9780
1254.18	232.51	9890	9890
1254.68	232.01	9650	9650
1255.18	231.51	9745	9745
1255.68	231.01	9980	9980
1256.18	230.51	9520	9520
1256.68	230.01	8855	8855
1257.18	229.51	8820	8820
1257.68	229.01	8705	8705
1258.18	228.51	8745	8745
1258.68	228.01	8915	8915
1259.18	227.51	8655	8655
1259.68	227.01	8555	8555
1260.18	226.51	8710	8710
1260.68	226.01	8700	8700
1261.18	225.51	8310	8310
1261.68	225.01	8460	8460
1262.18	224.51	8415	8415
1262.68	224.01	8640	8640
1263.18	223.51	8650	8650
1263.68	223.01	8510	8510
1264.18	222.51	8530	8530
1264.68	222.01	8780	8780
1265.18	221.51	8515	8515
1265.68	221.01	8545	8545
1266.18	220.51	8760	8760
1266.68	220.01	8635	8635
1267.18	219.51	8545	8545
1267.68	219.01	8590	8590
1268.18	218.51	8335	8335
1268.68	218.01	8525	8525
1269.18	217.51	8355	8355
1269.68	217.01	8195	8195
1270.18	216.51	8440	8440
1270.68	216.01	8655	8655
1271.18	215.51	8620	8620
1271.68	215.01	8430	8430
1272.18	214.51	8605	8605
1272.68	214.01	8600	8600
1273.18	213.51	8480	8480
1273.68	213.01	8365	8365
1274.18	212.51	8390	8390
1274.68	212.01	8570	8570
1275.18	211.51	8405	8405
1275.68	211.01	8615	8615
1276.18	210.51	8445	8445
1276.68	210.01	8535	8535
1277.18	209.51	8445	8445
1277.68	209.01	8295	8295
1278.18	208.51	8180	8180
1278.68	208.01	8220	8220
1279.18	207.51	8140	8140
1279.68	207.01	8410	8410
1280.18	206.51	8755	8755
1280.68	206.01	8355	8355
1281.18	205.51	8245	8245
1281.68	205.01	8370	8370
1282.18	204.51	8570	8570
1282.68	204.01	8100	8100
1283.18	203.51	8380	8380
1283.68	203.01	8285	8285
1284.18	202.51	8790	8308.49
1284.68	202.01	9025	8341.81
1285.18	201.51	8825	8364.28
1285.68	201.01	9430	8413.85
1286.18	200.51	9670	8472.27
1286.68	200.01	9880	8537.74
1287.18	199.51	9705	8592.03
1287.68	199.01	9570	8637.51
1288.18	198.51	9475	8676.46
1288.68	198.01	9075	8695
1289.18	197.51	8695	8695
1289.68	197.01	8960	8960
1290.18	196.51	8565	8565
1290.68	196.01	8805	8805
1291.18	195.51	8765	8765
1291.68	195.01	8545	8545
1292.18	194.51	8535	8535
1292.68	194.01	8535	8535
1293.18	193.51	8520	8520
1293.68	193.01	8425	8425
1294.18	192.51	8570	8570
1294.68	192.01	8910	8910
1295.18	191.51	8860	8860
1295.68	191.01	9030	9030
1296.18	190.51	9075	9075
1296.68	190.01	8660	8660
1297.18	189.51	8270	8270
1297.68	189.01	8970	8970
1298.18	188.51	8650	8650
1298.68	188.01	8425	8425
1299.18	187.51	8470	8470
1299.68	187.01	8350	8350
1300.18	186.51	8385	8385
1300.68	186.01	8580	8580
1301.18	185.51	8515	8515
1301.68	185.01	8420	8420
1302.18	184.51	8335	8335
1302.68	184.01	8710	8710
1303.18	183.51	8565	8565
1303.68	183.01	8360	8360
1304.18	182.51	8615	8615
1304.68	182.01	8400	8400
1305.18	181.51	8305	8305
1305.68	181.01	8360	8360
1306.18	180.51	8515	8515
1306.68	180.01	8325	8325
1307.18	179.51	8085	8085
1307.68	179.01	8605	8605
1308.18	178.51	8665	8665
1308.68	178.01	8350	8350
1309.18	177.51	8625	8625
1309.68	177.01	8460	8460
1310.18	176.51	8300	8300
1310.68	176.01	8185	8185
1311.18	175.51	8500	8500
1311.68	175.01	8535	8535
1312.18	174.51	8465	8465
1312.68	174.01	8385	8385
1313.18	173.51	8475	8475
1313.68	173.01	8575	8575
1314.18	172.51	8205	8205
1314.68	172.01	8350	8205.54
1315.18	171.51	8625	8207.1
1315.68	171.01	8985	8210.01
1316.18	170.51	9355	8214.28
1316.68	170.01	9375	8218.6
1317.18	169.51	10110	8225.66
1317.68	169.01	10495	8234.12
1318.18	168.51	10995	8244.42
1318.68	168.01	10820	8254.02
1319.18	167.51	10190	8261.24
1319.68	167.01	9550	8266.05
1320.18	166.51	9040	8268.93
1320.68	166.01	8555	8270
1321.18	165.51	8270	8270
1321.68	165.01	8080	8080
1322.18	164.51	8205	8205
1322.68	164.01	8085	8085
1323.18	163.51	8155	8155
1323.68	163.01	8055	8055
1324.18	162.51	7930	7930
1324.68	162.01	8195	8195
1325.18	161.51	8005	8005
1325.68	161.01	8010	8010
1326.18	160.51	8300	8300
1326.68	160.01	8325	8325
1327.18	159.51	8255	8255
1327.68	159.01	8050	8050
1328.18	158.51	8560	8560
1328.68	158.01	8505	8505
1329.18	157.51	8780	8780
1329.68	157.01	8665	8665
1330.18	156.51	8775	8775
1330.68	156.01	9420	9420
1331.18	155.51	9485	9485
1331.68	155.01	10010	10010
1332.18	154.51	10295	10295
1332.68	154.01	10355	10355
1333.18	153.51	10130	10130
1333.68	153.01	10275	10275
1334.18	152.51	10080	10080
1334.68	152.01	9825	9825
1335.18	151.51	8940	8940
1335.68	151.01	8760	8760
1336.18	150.51	8615	8615
1336.68	150.01	8110	8110
1337.18	149.51	8055	8055
1337.68	149.01	7990	7990
1338.18	148.51	8220	8220
1338.68	148.01	7975	7975
1339.18	147.51	8000	8000
1339.68	147.01	8185	8185
1340.18	146.51	8285	8285
1340.68	146.01	8065	8065
1341.18	145.51	8010	8010
1341.68	145.01	7995	7995
1342.18	144.51	7980	7980
1342.68	144.01	7735	7735
1343.18	143.51	8145	8145
1343.68	143.01	8060	8060
1344.18	142.51	8055	8055
1344.68	142.01	8125	8125
1345.18	141.51	8135	8135
1345.68	141.01	8075	8075
1346.18	140.51	8000	8000
1346.68	140.01	7775	7775
1347.18	139.51	7975	7975
1347.68	139.01	8200	8200
1348.18	138.51	8315	8315
1348.68	138.01	8375	8375
1349.18	137.51	8255	8255
1349.68	137.01	8405	8405
1350.18	136.51	8055	8055
1350.68	136.01	7965	7965
1351.18	135.51	8150	8150
1351.68	135.01	8270	8270
1352.18	134.51	8170	8170
1352.68	134.01	8495	8495
1353.18	133.51	8715	8715
1353.68	133.01	8435	8435
1354.18	132.51	8485	8485
1354.68	132.01	8355	8355
1355.18	131.51	8455	8455
1355.68	131.01	8255	8255
1356.18	130.51	7765	7765
1356.68	130.01	8260	8260
1357.18	129.51	8305	8305
1357.68	129.01	8005	8005
1358.18	128.51	7820	7820
1358.68	128.01	7865	7865
1359.18	127.51	8015	8015
1359.68	127.01	8365	8365
1360.18	126.51	8180	8180
1360.68	126.01	7940	7940
1361.18	125.51	8215	8215
1361.68	125.01	8410	8410
1362.18	124.51	8080	8080
1362.68	124.01	7965	7965
1363.18	123.51	8005	8005
1363.68	123.01	8285	8285
1364.18	122.51	8175	8175
1364.68	122.01	7785	7785
1365.18	121.51	8140	8140
1365.68	121.01	8050	8050
1366.18	120.51	8070	8070
1366.68	120.01	7980	7980
1367.18	119.51	8100	8100
1367.68	119.01	8190	8190
1368.18	118.51	7935	7935
1368.68	118.01	7990	7990
1369.18	117.51	7910	7910
1369.68	117.01	7520	7520
1370.18	116.51	7790	7790
1370.68	116.01	7820	7820
1371.18	115.51	7920	7920
1371.68	115.01	7620	7620
1372.18	114.51	7820	7820
1372.68	114.01	7995	7995
1373.18	113.51	7915	7915
1373.68	113.01	7955	7955
1374.18	112.51	7585	7585
1374.68	112.01	7685	7685
1375.18	111.51	7710	7710
1375.68	111.01	7670	7670
1376.18	110.51	8035	8035
1376.68	110.01	7485	7485
1377.18	109.51	7840	7840
1377.68	109.01	7830	7830
1378.18	108.51	7730	7730
1378.68	108.01	7635	7635
1379.18	107.51	7575	7575
1379.68	107.01	7870	7870
1380.18	106.51	8090	7863.34
1380.68	106.01	7950	7860.71
1381.18	105.51	8120	7852.85
1381.68	105.01	8660	7828.4
1382.18	104.51	9225	7786.09
1382.68	104.01	9555	7732.51
1383.18	103.51	9615	7675.48
1383.68	103.01	9915	7607.64
1384.18	102.51	9630	7546.37
1384.68	102.01	9395	7490.37
1385.18	101.51	8980	7445.24
1385.68	101.01	8780	7404.81
1386.18	100.51	8520	7371.02
1386.68	100.01	8265	7343.94
1387.18	99.51	7775	7330.88
1387.68	99.01	7360	7330
1388.18	98.51	7330	7330
1388.68	98.01	7460	7460
1389.18	97.51	7530	7530
1389.68	97.01	7430	7430
1390.18	96.51	7435	7435
1390.68	96.01	7470	7470
1391.18	95.51	7605	7605
1391.68	95.01	7660	7660
1392.18	94.51	7830	7830
1392.68	94.01	7855	7855
1393.18	93.51	7635	7635
1393.68	93.01	7630	7630
1394.18	92.51	7750	7750
1394.68	92.01	8005	8005
1395.18	91.51	8145	8145
1395.68	91.01	8085	8085
1396.18	90.51	8085	8085
1396.68	90.01	8145	8145
1397.18	89.51	7820	7820
1397.68	89.01	7325	7325
1398.18	88.51	7540	7540
1398.68	88.01	7425	7425
1399.18	87.51	7055	7055
1399.68	87.01	7055	7055
1400.18	86.51	6965	6965
1400.68	86.01	6955	6955
1401.18	85.51	6790	6790
1401.68	85.01	6705	6705
1402.18	84.51	6645	6645
1402.68	84.01	6825	6825
1403.18	83.51	6555	6555
1403.68	83.01	6585	6585
1404.18	82.51	6995	6995
1404.68	82.01	6510	6510
1405.18	81.51	6700	6700
1405.68	81.01	6590	6590
1406.18	80.51	6925	6925
1406.68	80.01	6815	6815
1407.18	79.51	6885	6885
1407.68	79.01	6960	6960
1408.18	78.51	6915	6915
1408.68	78.01	7085	7085
1409.18	77.51	7125	7125
1409.68	77.01	6620	6620
1410.18	76.51	7020	7020
1410.68	76.01	7115	7115
1411.18	75.51	6865	6865
1411.68	75.01	7195	7195
1412.18	74.51	6815	6815
1412.68	74.01	6450	6450
1413.18	73.51	6575	6575
1413.68	73.01	6635	6635
1414.18	72.51	6760	6760
1414.68	72.01	6855	6855
1415.18	71.51	6480	6480
1415.68	71.01	6575	6575
1416.18	70.51	6585	6585
1416.68	70.01	6500	6500
1417.18	69.51	6520	6520
1417.68	69.01	6765	6765
1418.18	68.51	6525	6525
1418.68	68.01	6660	6660
1419.18	67.51	6605	6605
1419.68	67.01	6820	6820
1420.18	66.51	6930	6930
1420.68	66.01	7060	7060
1421.18	65.51	6460	6460
1421.68	65.01	6385	6385
1422.18	64.51	6000	6000
1422.68	64.01	6075	6075
1423.18	63.51	6030	6030
1423.68	63.01	5890	5890
1424.18	62.51	6055	6055
1424.68	62.01	6000	6000
1425.18	61.51	5900	5900
1425.68	61.01	6090	6090
1426.18	60.51	6015	6015
1426.68	60.01	5900	5900
1427.18	59.51	5800	5800
1427.68	59.01	5905	5905
1428.18	58.51	6105	6105
1428.68	58.01	6020	6020
1429.18	57.51	6245	6245
1429.68	57.01	6545	6545
1430.18	56.51	6875	6875
1430.68	56.01	6950	6950
1431.18	55.51	6955	6955
1431.68	55.01	6740	6740
1432.18	54.51	6465	6465
1432.68	54.01	6595	6595
1433.18	53.51	6345	6345
1433.68	53.01	6355	6355
1434.18	52.51	6110	6110
1434.68	52.01	6100	6100
1435.18	51.51	5615	5615
1435.68	51.01	5415	5415
1436.18	50.51	5530	5530
1436.68	50.01	5250	5250
1437.18	49.51	5255	5255
1437.68	49.01	5085	5085
1438.18	48.51	5265	5265
1438.68	48.01	4895	4895
1439.18	47.51	5060	5060
1439.68	47.01	5235	5235
1440.18	46.51	5105	5105
1440.68	46.01	5240	5240
1441.18	45.51	5250	5250
1441.68	45.01	5650	5650
1442.18	44.51	5505	5505
1442.68	44.01	5630	5630
1443.18	43.51	5550	5550
1443.68	43.01	5380	5380
1444.18	42.51	5095	5095
1444.68	42.01	4995	4995
1445.18	41.51	4785	4785
1445.68	41.01	4420	4420
1446.18	40.51	4210	4210
1446.68	40.01	4365	4365
1447.18	39.51	3990	3990
1447.68	39.01	3795	3795
1448.18	38.51	4165	4165
1448.68	38.01	3900	3900
1449.18	37.51	3735	3735
1449.68	37.01	3940	3940
1450.18	36.51	3865	3865
1450.68	36.01	3760	3760
1451.18	35.51	3640	3640
1451.68	35.01	3710	3710
1452.18	34.51	3950	3950
1452.68	34.01	3680	3680
1453.18	33.51	3755	3755
1453.68	33.01	3725	3725
1454.18	32.51	3800	3800
1454.68	32.01	4090	4090
1455.18	31.51	4140	4140
1455.68	31.01	4055	4055
1456.18	30.51	4430	4430
1456.68	30.01	4755	4755
1457.18	29.51	4830	4830
1457.68	29.01	5135	5135
1458.18	28.51	5485	5485
1458.68	28.01	5830	5830
1459.18	27.51	6265	6265
1459.68	27.01	6590	6590
1460.18	26.51	6775	6775
1460.68	26.01	7250	7250
1461.18	25.51	7280	7280
1461.68	25.01	6800	6800
1462.18	24.51	6475	6475
1462.68	24.01	6040	6040
1463.18	23.51	5050	5050
1463.68	23.01	4795	4795
1464.18	22.51	4595	4595
1464.68	22.01	4500	4500
1465.18	21.51	4520	4520
1465.68	21.01	4195	4195
1466.18	20.51	4210	4210
1466.68	20.01	4325	4325
1467.18	19.51	4550	4550
1467.68	19.01	4550	4550
1468.18	18.51	4215	4215
1468.68	18.01	4775	4775
1469.18	17.51	4380	4380
1469.68	17.01	4675	4675
1470.18	16.51	4535	4535
1470.68	16.01	4545	4545
1471.18	15.51	4545	4545
1471.68	15.01	4380	4380
1472.18	14.51	4240	4240
1472.68	14.01	4065	4065
1473.18	13.51	4145	4145
1473.68	13.01	3905	3905
1474.18	12.51	3890	3890
1474.68	12.01	3635	3635
1475.18	11.51	3495	3495
1475.68	11.01	3390	3390
1476.18	10.51	3405	3405
1476.68	10.01	3215	3215
1477.18	9.51	3225	3225
1477.68	9.01	3250	3250
1478.18	8.51	2955	2955
1478.68	8.01	2960	2960
1479.18	7.51	2945	2945
1479.68	7.01	2680	2680
1480.18	6.51	2625	2625
1480.68	6.01	2750	2750
1481.18	5.51	2575	2575
1481.68	5.01	2230	2230
1482.18	4.51	2000	2000
1482.68	4.01	1905	1905
1483.18	3.51	1825	1825
1483.68	3.01	1435	1435
1484.18	2.51	1375	1375
1484.68	2.01	1165	1165
1485.18	1.51	990	990
1485.68	1.01	805	805
1486.18	0.51	790	790
1486.68	0.01	510	510