C:\Users\emilbp\PhD\Projects\graphene-production\data\derived_data\xps\20170920_Gr-NH2_for_Radisurf\GrNH2.vms
Survey/2
	Characteristic Energy eV	1486.69	Acquisition Time s	0.2
KE_Survey/2	BE_Survey/2	CPS_Survey/2	Background_Survey/2
136.706	1349.98	51190	51190
137.206	1349.48	50260	50260
137.706	1348.98	51245	51245
138.206	1348.48	50730	50730
138.706	1347.98	50375	50375
139.206	1347.48	51185	51185
139.706	1346.98	50755	50755
140.206	1346.48	50225	50225
140.706	1345.98	50800	50800
141.206	1345.48	51300	51300
141.706	1344.98	51010	51010
142.206	1344.48	50200	50200
142.706	1343.98	50275	50275
143.206	1343.48	50360	50360
143.706	1342.98	49745	49745
144.206	1342.48	49890	49890
144.706	1341.98	50585	50585
145.206	1341.48	50630	50630
145.706	1340.98	50750	50750
146.206	1340.48	51095	51095
146.706	1339.98	50960	50960
147.206	1339.48	50735	50735
147.706	1338.98	50270	50270
148.206	1338.48	50280	50280
148.706	1337.98	50225	50225
149.206	1337.48	50905	50905
149.706	1336.98	50950	50950
150.206	1336.48	50965	50965
150.706	1335.98	50620	50620
151.206	1335.48	50865	50865
151.706	1334.98	51195	51195
152.206	1334.48	50400	50400
152.706	1333.98	50680	50680
153.206	1333.48	50750	50750
153.706	1332.98	50705	50705
154.206	1332.48	51225	51225
154.706	1331.98	50870	50870
155.206	1331.48	51420	51420
155.706	1330.98	50145	50145
156.206	1330.48	51125	51125
156.706	1329.98	50755	50755
157.206	1329.48	51110	51110
157.706	1328.98	50925	50925
158.206	1328.48	51225	51225
158.706	1327.98	50400	50400
159.206	1327.48	50710	50710
159.706	1326.98	50275	50275
160.206	1326.48	50580	50580
160.706	1325.98	51060	51060
161.206	1325.48	50985	50985
161.706	1324.98	50225	50225
162.206	1324.48	51220	51220
162.706	1323.98	51260	51260
163.206	1323.48	50935	50935
163.706	1322.98	50770	50770
164.206	1322.48	50385	50385
164.706	1321.98	49650	49650
165.206	1321.48	50850	50850
165.706	1320.98	51200	51200
166.206	1320.48	51915	51915
166.706	1319.98	51445	51445
167.206	1319.48	51335	51335
167.706	1318.98	51215	51215
168.206	1318.48	51745	51745
168.706	1317.98	50465	50465
169.206	1317.48	51485	51485
169.706	1316.98	50960	50960
170.206	1316.48	50495	50495
170.706	1315.98	51040	51040
171.206	1315.48	50495	50495
171.706	1314.98	50780	50780
172.206	1314.48	51095	51095
172.706	1313.98	51020	51020
173.206	1313.48	50710	50710
173.706	1312.98	50825	50825
174.206	1312.48	50735	50735
174.706	1311.98	51325	51325
175.206	1311.48	51140	51140
175.706	1310.98	50965	50965
176.206	1310.48	51270	51270
176.706	1309.98	51645	51645
177.206	1309.48	51425	51425
177.706	1308.98	51910	51910
178.206	1308.48	51825	51825
178.706	1307.98	51635	51635
179.206	1307.48	52060	52060
179.706	1306.98	51795	51795
180.206	1306.48	52865	52865
180.706	1305.98	52775	52775
181.206	1305.48	53175	53175
181.706	1304.98	54135	54135
182.206	1304.48	54700	54700
182.706	1303.98	54170	54170
183.206	1303.48	53870	53870
183.706	1302.98	53220	53220
184.206	1302.48	52945	52945
184.706	1301.98	52930	52930
185.206	1301.48	53925	53925
185.706	1300.98	53375	53375
186.206	1300.48	52890	52890
186.706	1299.98	53355	53355
187.206	1299.48	52440	52440
187.706	1298.98	53165	53165
188.206	1298.48	52885	52885
188.706	1297.98	52360	52360
189.206	1297.48	53000	53000
189.706	1296.98	52855	52855
190.206	1296.48	53510	53510
190.706	1295.98	52395	52395
191.206	1295.48	52950	52950
191.706	1294.98	53515	53515
192.206	1294.48	53575	53575
192.706	1293.98	53480	53480
193.206	1293.48	53355	53355
193.706	1292.98	53300	53300
194.206	1292.48	53355	53355
194.706	1291.98	53255	53255
195.206	1291.48	53560	53560
195.706	1290.98	53700	53700
196.206	1290.48	53540	53540
196.706	1289.98	54255	54255
197.206	1289.48	53710	53710
197.706	1288.98	53195	53195
198.206	1288.48	54585	54585
198.706	1287.98	53590	53590
199.206	1287.48	53650	53650
199.706	1286.98	54310	54310
200.206	1286.48	54870	54870
200.706	1285.98	54785	54785
201.206	1285.48	54395	54395
201.706	1284.98	54425	54425
202.206	1284.48	53975	53975
202.706	1283.98	54660	54660
203.206	1283.48	54815	54815
203.706	1282.98	54760	54760
204.206	1282.48	55040	55040
204.706	1281.98	54105	54105
205.206	1281.48	53750	53750
205.706	1280.98	55350	55350
206.206	1280.48	54700	54700
206.706	1279.98	54355	54355
207.206	1279.48	54615	54615
207.706	1278.98	55265	55265
208.206	1278.48	55355	55355
208.706	1277.98	55620	55620
209.206	1277.48	55275	55275
209.706	1276.98	54690	54690
210.206	1276.48	54795	54795
210.706	1275.98	55050	55050
211.206	1275.48	55965	55965
211.706	1274.98	56080	56080
212.206	1274.48	54835	54835
212.706	1273.98	55505	55505
213.206	1273.48	55215	55215
213.706	1272.98	55610	55610
214.206	1272.48	55655	55655
214.706	1271.98	55775	55775
215.206	1271.48	56570	56570
215.706	1270.98	56570	56570
216.206	1270.48	56240	56240
216.706	1269.98	56210	56210
217.206	1269.48	56600	56600
217.706	1268.98	56555	56555
218.206	1268.48	56130	56130
218.706	1267.98	56610	56610
219.206	1267.48	56015	56015
219.706	1266.98	56985	56985
220.206	1266.48	57275	57275
220.706	1265.98	57480	57480
221.206	1265.48	57130	57130
221.706	1264.98	57740	57740
222.206	1264.48	58140	58140
222.706	1263.98	57620	57620
223.206	1263.48	57110	57110
223.706	1262.98	57060	57060
224.206	1262.48	57895	57895
224.706	1261.98	57925	57925
225.206	1261.48	58395	58395
225.706	1260.98	57670	57670
226.206	1260.48	57525	57525
226.706	1259.98	58135	58135
227.206	1259.48	58520	58520
227.706	1258.98	57735	57735
228.206	1258.48	58900	58900
228.706	1257.98	58540	58540
229.206	1257.48	58375	58375
229.706	1256.98	58080	58080
230.206	1256.48	58205	58205
230.706	1255.98	58165	58165
231.206	1255.48	58270	58270
231.706	1254.98	59160	59160
232.206	1254.48	58550	58550
232.706	1253.98	59025	59025
233.206	1253.48	59465	59465
233.706	1252.98	59465	59465
234.206	1252.48	58540	58540
234.706	1251.98	59905	59905
235.206	1251.48	60715	60715
235.706	1250.98	60250	60250
236.206	1250.48	59930	59930
236.706	1249.98	60040	60040
237.206	1249.48	60985	60985
237.706	1248.98	60390	60390
238.206	1248.48	60550	60550
238.706	1247.98	61560	61560
239.206	1247.48	61805	61805
239.706	1246.98	61410	61410
240.206	1246.48	62235	62235
240.706	1245.98	61690	61690
241.206	1245.48	61590	61590
241.706	1244.98	61990	61990
242.206	1244.48	62375	62375
242.706	1243.98	62000	62000
243.206	1243.48	61895	61895
243.706	1242.98	62560	62560
244.206	1242.48	62355	62355
244.706	1241.98	61520	61520
245.206	1241.48	61895	61895
245.706	1240.98	62210	62210
246.206	1240.48	62060	62060
246.706	1239.98	62430	62430
247.206	1239.48	62380	62380
247.706	1238.98	62045	62045
248.206	1238.48	62015	62015
248.706	1237.98	62930	62930
249.206	1237.48	61855	61855
249.706	1236.98	62095	62095
250.206	1236.48	62155	62155
250.706	1235.98	61765	61765
251.206	1235.48	62565	62565
251.706	1234.98	62645	62645
252.206	1234.48	63300	63300
252.706	1233.98	63125	63125
253.206	1233.48	64850	64850
253.706	1232.98	64710	64710
254.206	1232.48	64120	64120
254.706	1231.98	65155	65155
255.206	1231.48	66230	66230
255.706	1230.98	66825	66825
256.206	1230.48	66440	66440
256.706	1229.98	67100	67100
257.206	1229.48	67385	67385
257.706	1228.98	68365	68365
258.206	1228.48	68610	68610
258.706	1227.98	68755	68755
259.206	1227.48	68355	68355
259.706	1226.98	68240	68240
260.206	1226.48	68230	68230
260.706	1225.98	68755	68755
261.206	1225.48	68765	68765
261.706	1224.98	69075	69075
262.206	1224.48	68770	68770
262.706	1223.98	68095	68095
263.206	1223.48	68240	68240
263.706	1222.98	69030	69030
264.206	1222.48	67980	67980
264.706	1221.98	67785	67785
265.206	1221.48	67380	67380
265.706	1220.98	66260	66260
266.206	1220.48	66120	66120
266.706	1219.98	64430	64430
267.206	1219.48	64835	64835
267.706	1218.98	64560	64560
268.206	1218.48	63525	63525
268.706	1217.98	62580	62580
269.206	1217.48	61710	61710
269.706	1216.98	60170	60170
270.206	1216.48	59540	59540
270.706	1215.98	59440	59440
271.206	1215.48	58560	58560
271.706	1214.98	57975	57975
272.206	1214.48	56560	56560
272.706	1213.98	55075	55075
273.206	1213.48	53870	53870
273.706	1212.98	52330	52330
274.206	1212.48	51450	51450
274.706	1211.98	51260	51260
275.206	1211.48	50325	50325
275.706	1210.98	49425	49425
276.206	1210.48	48615	48615
276.706	1209.98	47820	47820
277.206	1209.48	47420	47420
277.706	1208.98	46210	46210
278.206	1208.48	45375	45375
278.706	1207.98	45390	45390
279.206	1207.48	44525	44525
279.706	1206.98	43910	43910
280.206	1206.48	44075	44075
280.706	1205.98	43105	43105
281.206	1205.48	43095	43095
281.706	1204.98	42220	42220
282.206	1204.48	42515	42515
282.706	1203.98	41890	41890
283.206	1203.48	41855	41855
283.706	1202.98	42005	42005
284.206	1202.48	41900	41900
284.706	1201.98	41035	41035
285.206	1201.48	41695	41695
285.706	1200.98	41025	41025
286.206	1200.48	41095	41095
286.706	1199.98	41195	41195
287.206	1199.48	42230	42230
287.706	1198.98	41500	41500
288.206	1198.48	40505	40505
288.706	1197.98	40630	40630
289.206	1197.48	41275	41275
289.706	1196.98	41525	41525
290.206	1196.48	42240	42240
290.706	1195.98	41905	41905
291.206	1195.48	41835	41835
291.706	1194.98	41300	41300
292.206	1194.48	42090	42090
292.706	1193.98	41950	41950
293.206	1193.48	41600	41600
293.706	1192.98	42235	42235
294.206	1192.48	41480	41480
294.706	1191.98	41580	41580
295.206	1191.48	41350	41350
295.706	1190.98	42040	42040
296.206	1190.48	41885	41885
296.706	1189.98	41250	41250
297.206	1189.48	42835	42835
297.706	1188.98	42190	42190
298.206	1188.48	41625	41625
298.706	1187.98	41450	41450
299.206	1187.48	41725	41725
299.706	1186.98	40710	40710
300.206	1186.48	41180	41180
300.706	1185.98	41915	41915
301.206	1185.48	42050	42050
301.706	1184.98	41825	41825
302.206	1184.48	41510	41510
302.706	1183.98	41575	41575
303.206	1183.48	42490	42490
303.706	1182.98	42170	42170
304.206	1182.48	42080	42080
304.706	1181.98	42290	42290
305.206	1181.48	41845	41845
305.706	1180.98	42265	42265
306.206	1180.48	42205	42205
306.706	1179.98	41915	41915
307.206	1179.48	43200	43200
307.706	1178.98	42710	42710
308.206	1178.48	42800	42800
308.706	1177.98	42735	42735
309.206	1177.48	42870	42870
309.706	1176.98	43580	43580
310.206	1176.48	42935	42935
310.706	1175.98	42905	42905
311.206	1175.48	42305	42305
311.706	1174.98	43020	43020
312.206	1174.48	42685	42685
312.706	1173.98	42630	42630
313.206	1173.48	43290	43290
313.706	1172.98	43315	43315
314.206	1172.48	42630	42630
314.706	1171.98	43010	43010
315.206	1171.48	43190	43190
315.706	1170.98	42990	42990
316.206	1170.48	42430	42430
316.706	1169.98	42770	42770
317.206	1169.48	42425	42425
317.706	1168.98	42490	42490
318.206	1168.48	42830	42830
318.706	1167.98	42870	42870
319.206	1167.48	43065	43065
319.706	1166.98	43485	43485
320.206	1166.48	43590	43590
320.706	1165.98	42980	42980
321.206	1165.48	44165	44165
321.706	1164.98	44090	44090
322.206	1164.48	43185	43185
322.706	1163.98	43725	43725
323.206	1163.48	43370	43370
323.706	1162.98	43110	43110
324.206	1162.48	43795	43795
324.706	1161.98	43805	43805
325.206	1161.48	43695	43695
325.706	1160.98	44190	44190
326.206	1160.48	44240	44240
326.706	1159.98	43220	43220
327.206	1159.48	43355	43355
327.706	1158.98	43070	43070
328.206	1158.48	43260	43260
328.706	1157.98	44620	44620
329.206	1157.48	44550	44550
329.706	1156.98	43775	43775
330.206	1156.48	43990	43990
330.706	1155.98	44115	44115
331.206	1155.48	44030	44030
331.706	1154.98	44020	44020
332.206	1154.48	44060	44060
332.706	1153.98	44230	44230
333.206	1153.48	44495	44495
333.706	1152.98	44240	44240
334.206	1152.48	44830	44830
334.706	1151.98	44155	44155
335.206	1151.48	43900	43900
335.706	1150.98	44625	44625
336.206	1150.48	44780	44780
336.706	1149.98	44660	44660
337.206	1149.48	44900	44900
337.706	1148.98	45335	45335
338.206	1148.48	44615	44615
338.706	1147.98	44970	44970
339.206	1147.48	44645	44645
339.706	1146.98	44365	44365
340.206	1146.48	44870	44870
340.706	1145.98	44755	44755
341.206	1145.48	44990	44990
341.706	1144.98	44475	44475
342.206	1144.48	44700	44700
342.706	1143.98	44905	44905
343.206	1143.48	44190	44190
343.706	1142.98	45055	45055
344.206	1142.48	46025	46025
344.706	1141.98	45820	45820
345.206	1141.48	45505	45505
345.706	1140.98	45170	45170
346.206	1140.48	45385	45385
346.706	1139.98	45300	45300
347.206	1139.48	45335	45335
347.706	1138.98	45460	45460
348.206	1138.48	45145	45145
348.706	1137.98	45040	45040
349.206	1137.48	44730	44730
349.706	1136.98	45685	45685
350.206	1136.48	45790	45790
350.706	1135.98	45815	45815
351.206	1135.48	46250	46250
351.706	1134.98	45445	45445
352.206	1134.48	45495	45495
352.706	1133.98	45660	45660
353.206	1133.48	45660	45660
353.706	1132.98	45785	45785
354.206	1132.48	46120	46120
354.706	1131.98	46630	46630
355.206	1131.48	46435	46435
355.706	1130.98	46855	46855
356.206	1130.48	45745	45745
356.706	1129.98	46215	46215
357.206	1129.48	46430	46430
357.706	1128.98	46580	46580
358.206	1128.48	46720	46720
358.706	1127.98	47010	47010
359.206	1127.48	46435	46435
359.706	1126.98	46510	46510
360.206	1126.48	46805	46805
360.706	1125.98	46190	46190
361.206	1125.48	46530	46530
361.706	1124.98	46365	46365
362.206	1124.48	45885	45885
362.706	1123.98	46730	46730
363.206	1123.48	46415	46415
363.706	1122.98	46290	46290
364.206	1122.48	46275	46275
364.706	1121.98	46845	46845
365.206	1121.48	47195	47195
365.706	1120.98	47705	47705
366.206	1120.48	47025	47025
366.706	1119.98	46570	46570
367.206	1119.48	46900	46900
367.706	1118.98	46925	46925
368.206	1118.48	46930	46930
368.706	1117.98	46985	46985
369.206	1117.48	47020	47020
369.706	1116.98	46885	46885
370.206	1116.48	47640	47640
370.706	1115.98	46885	46885
371.206	1115.48	47435	47435
371.706	1114.98	48175	48175
372.206	1114.48	47650	47650
372.706	1113.98	47445	47445
373.206	1113.48	46995	46995
373.706	1112.98	47290	47290
374.206	1112.48	46790	46790
374.706	1111.98	47555	47555
375.206	1111.48	47795	47795
375.706	1110.98	47995	47995
376.206	1110.48	47565	47565
376.706	1109.98	47720	47720
377.206	1109.48	47715	47715
377.706	1108.98	47780	47780
378.206	1108.48	48590	48590
378.706	1107.98	47595	47595
379.206	1107.48	48050	48050
379.706	1106.98	48300	48300
380.206	1106.48	48775	48775
380.706	1105.98	48505	48505
381.206	1105.48	48800	48800
381.706	1104.98	48885	48885
382.206	1104.48	48375	48375
382.706	1103.98	47255	47255
383.206	1103.48	48310	48310
383.706	1102.98	47680	47680
384.206	1102.48	48030	48030
384.706	1101.98	48740	48740
385.206	1101.48	47640	47640
385.706	1100.98	47885	47885
386.206	1100.48	48475	48475
386.706	1099.98	48290	48290
387.206	1099.48	48340	48340
387.706	1098.98	49010	49010
388.206	1098.48	49470	49470
388.706	1097.98	48930	48930
389.206	1097.48	48100	48100
389.706	1096.98	48045	48045
390.206	1096.48	47910	47910
390.706	1095.98	48835	48835
391.206	1095.48	49630	49630
391.706	1094.98	48175	48175
392.206	1094.48	48695	48695
392.706	1093.98	48320	48320
393.206	1093.48	48725	48725
393.706	1092.98	48320	48320
394.206	1092.48	48370	48370
394.706	1091.98	48920	48920
395.206	1091.48	49060	49060
395.706	1090.98	48695	48695
396.206	1090.48	48675	48675
396.706	1089.98	49290	49290
397.206	1089.48	49210	49210
397.706	1088.98	48890	48890
398.206	1088.48	48565	48565
398.706	1087.98	48670	48670
399.206	1087.48	49640	49640
399.706	1086.98	49295	49295
400.206	1086.48	48365	48365
400.706	1085.98	48820	48820
401.206	1085.48	48565	48565
401.706	1084.98	49065	49065
402.206	1084.48	49655	49655
402.706	1083.98	50040	50040
403.206	1083.48	49185	49185
403.706	1082.98	49805	49805
404.206	1082.48	49375	49375
404.706	1081.98	49580	49580
405.206	1081.48	49685	49685
405.706	1080.98	50440	50440
406.206	1080.48	50315	50315
406.706	1079.98	49635	49635
407.206	1079.48	49785	49785
407.706	1078.98	49500	49500
408.206	1078.48	50330	50330
408.706	1077.98	50455	50455
409.206	1077.48	49905	49905
409.706	1076.98	49955	49955
410.206	1076.48	50555	50555
410.706	1075.98	50460	50460
411.206	1075.48	49875	49875
411.706	1074.98	50245	50245
412.206	1074.48	50685	50685
412.706	1073.98	50495	50495
413.206	1073.48	50425	50425
413.706	1072.98	50415	50415
414.206	1072.48	51115	51115
414.706	1071.98	50565	50565
415.206	1071.48	50855	50855
415.706	1070.98	50945	50945
416.206	1070.48	51515	51515
416.706	1069.98	50895	50895
417.206	1069.48	50785	50785
417.706	1068.98	50850	50850
418.206	1068.48	50955	50955
418.706	1067.98	50410	50410
419.206	1067.48	50620	50620
419.706	1066.98	51360	51360
420.206	1066.48	51290	51290
420.706	1065.98	51100	51100
421.206	1065.48	50945	50945
421.706	1064.98	51475	51475
422.206	1064.48	50580	50580
422.706	1063.98	51770	51770
423.206	1063.48	52025	52025
423.706	1062.98	51405	51405
424.206	1062.48	51900	51900
424.706	1061.98	51935	51935
425.206	1061.48	51595	51595
425.706	1060.98	51630	51630
426.206	1060.48	52175	52175
426.706	1059.98	51870	51870
427.206	1059.48	51805	51805
427.706	1058.98	52385	52385
428.206	1058.48	52585	52585
428.706	1057.98	53260	53260
429.206	1057.48	53055	53055
429.706	1056.98	51910	51910
430.206	1056.48	51675	51675
430.706	1055.98	52465	52465
431.206	1055.48	52825	52825
431.706	1054.98	52580	52580
432.206	1054.48	52375	52375
432.706	1053.98	52700	52700
433.206	1053.48	52790	52790
433.706	1052.98	51940	51940
434.206	1052.48	52815	52815
434.706	1051.98	53055	53055
435.206	1051.48	52725	52725
435.706	1050.98	52340	52340
436.206	1050.48	52270	52270
436.706	1049.98	52240	52240
437.206	1049.48	52720	52720
437.706	1048.98	52565	52565
438.206	1048.48	52735	52735
438.706	1047.98	53090	53090
439.206	1047.48	52675	52675
439.706	1046.98	52690	52690
440.206	1046.48	53240	53240
440.706	1045.98	53340	53340
441.206	1045.48	53050	53050
441.706	1044.98	54000	54000
442.206	1044.48	53470	53470
442.706	1043.98	54395	54395
443.206	1043.48	54265	54265
443.706	1042.98	53635	53635
444.206	1042.48	53465	53465
444.706	1041.98	54080	54080
445.206	1041.48	53455	53455
445.706	1040.98	53250	53250
446.206	1040.48	53770	53770
446.706	1039.98	53605	53605
447.206	1039.48	54080	54080
447.706	1038.98	54300	54300
448.206	1038.48	54605	54605
448.706	1037.98	54150	54150
449.206	1037.48	54000	54000
449.706	1036.98	54140	54140
450.206	1036.48	54710	54710
450.706	1035.98	54340	54340
451.206	1035.48	53940	53940
451.706	1034.98	54235	54235
452.206	1034.48	53705	53705
452.706	1033.98	53410	53410
453.206	1033.48	54450	54450
453.706	1032.98	54240	54240
454.206	1032.48	55025	55025
454.706	1031.98	55435	55435
455.206	1031.48	54445	54445
455.706	1030.98	54745	54745
456.206	1030.48	54670	54670
456.706	1029.98	54985	54985
457.206	1029.48	54695	54695
457.706	1028.98	55070	55070
458.206	1028.48	55465	55465
458.706	1027.98	55605	55605
459.206	1027.48	55180	55180
459.706	1026.98	55100	55100
460.206	1026.48	55310	55310
460.706	1025.98	55390	55390
461.206	1025.48	55300	55300
461.706	1024.98	55745	55745
462.206	1024.48	56270	56270
462.706	1023.98	56515	56515
463.206	1023.48	56240	56240
463.706	1022.98	57195	57195
464.206	1022.48	56710	56710
464.706	1021.98	56965	56965
465.206	1021.48	56950	56950
465.706	1020.98	56425	56425
466.206	1020.48	56835	56835
466.706	1019.98	55955	55955
467.206	1019.48	57050	57050
467.706	1018.98	57425	57425
468.206	1018.48	57080	57080
468.706	1017.98	57345	57345
469.206	1017.48	57175	57175
469.706	1016.98	56900	56900
470.206	1016.48	57475	57475
470.706	1015.98	57235	57235
471.206	1015.48	56720	56720
471.706	1014.98	57110	57110
472.206	1014.48	57660	57660
472.706	1013.98	57285	57285
473.206	1013.48	56920	56920
473.706	1012.98	57160	57160
474.206	1012.48	56110	56110
474.706	1011.98	56985	56985
475.206	1011.48	56685	56685
475.706	1010.98	58030	58030
476.206	1010.48	57520	57520
476.706	1009.98	57335	57335
477.206	1009.48	56870	56870
477.706	1008.98	57260	57260
478.206	1008.48	57315	57315
478.706	1007.98	57920	57920
479.206	1007.48	58590	58590
479.706	1006.98	58220	58220
480.206	1006.48	58100	58100
480.706	1005.98	59500	59500
481.206	1005.48	59730	59730
481.706	1004.98	60255	60255
482.206	1004.48	59160	59160
482.706	1003.98	59960	59960
483.206	1003.48	61425	61425
483.706	1002.98	60850	60850
484.206	1002.48	61920	61920
484.706	1001.98	61335	61335
485.206	1001.48	62275	62275
485.706	1000.98	62415	62415
486.206	1000.48	62790	62790
486.706	999.984	62305	62305
487.206	999.484	62080	62080
487.706	998.984	62390	62390
488.206	998.484	61705	61705
488.706	997.984	61725	61725
489.206	997.484	61270	61270
489.706	996.984	61340	61340
490.206	996.484	60115	60115
490.706	995.984	60420	60420
491.206	995.484	60815	60815
491.706	994.984	60310	60310
492.206	994.484	59080	59080
492.706	993.984	58340	58340
493.206	993.484	59380	59380
493.706	992.984	58305	58305
494.206	992.484	58255	58255
494.706	991.984	58610	58610
495.206	991.484	57730	57730
495.706	990.984	57140	57140
496.206	990.484	56940	56940
496.706	989.984	56435	56435
497.206	989.484	56290	56290
497.706	988.984	56320	56320
498.206	988.484	55650	55650
498.706	987.984	56340	56340
499.206	987.484	56155	56155
499.706	986.984	55610	55610
500.206	986.484	56415	56415
500.706	985.984	55930	55930
501.206	985.484	56465	56465
501.706	984.984	56940	56940
502.206	984.484	57240	57240
502.706	983.984	57340	57340
503.206	983.484	58585	58585
503.706	982.984	58820	58820
504.206	982.484	59355	59355
504.706	981.984	59930	59930
505.206	981.484	62165	62165
505.706	980.984	62645	62645
506.206	980.484	62505	62505
506.706	979.984	64220	64220
507.206	979.484	66415	66415
507.706	978.984	66975	66975
508.206	978.484	66620	66620
508.706	977.984	66895	66895
509.206	977.484	68470	68470
509.706	976.984	69105	69105
510.206	976.484	67815	67815
510.706	975.984	68010	68010
511.206	975.484	67085	67085
511.706	974.984	66760	66760
512.206	974.484	65505	65505
512.706	973.984	65265	65265
513.206	973.484	64565	64565
513.706	972.984	62645	62645
514.206	972.484	62865	62865
514.706	971.984	61360	61360
515.206	971.484	60145	60145
515.706	970.984	58920	58920
516.206	970.484	57475	57475
516.706	969.984	56920	56920
517.206	969.484	56010	56010
517.706	968.984	53485	53485
518.206	968.484	52040	52040
518.706	967.984	50835	50835
519.206	967.484	49730	49730
519.706	966.984	49025	49025
520.206	966.484	46260	46260
520.706	965.984	45480	45480
521.206	965.484	44375	44375
521.706	964.984	43675	43675
522.206	964.484	43145	43145
522.706	963.984	41880	41880
523.206	963.484	41725	41725
523.706	962.984	41420	41420
524.206	962.484	42095	42095
524.706	961.984	42250	42250
525.206	961.484	40830	40830
525.706	960.984	40270	40270
526.206	960.484	40615	40615
526.706	959.984	40510	40510
527.206	959.484	40870	40870
527.706	958.984	40265	40265
528.206	958.484	40750	40750
528.706	957.984	40930	40930
529.206	957.484	41220	41220
529.706	956.984	40890	40890
530.206	956.484	40590	40590
530.706	955.984	39830	39830
531.206	955.484	40260	40260
531.706	954.984	40395	40395
532.206	954.484	40445	40445
532.706	953.984	40655	40655
533.206	953.484	40185	40185
533.706	952.984	40305	40305
534.206	952.484	40380	40380
534.706	951.984	40745	40745
535.206	951.484	40665	40665
535.706	950.984	40540	40540
536.206	950.484	39560	39560
536.706	949.984	40005	40005
537.206	949.484	40170	40170
537.706	948.984	40420	40420
538.206	948.484	40770	40770
538.706	947.984	40125	40125
539.206	947.484	40710	40710
539.706	946.984	40550	40550
540.206	946.484	40600	40600
540.706	945.984	40645	40645
541.206	945.484	40985	40985
541.706	944.984	40615	40615
542.206	944.484	40420	40420
542.706	943.984	40695	40695
543.206	943.484	40285	40285
543.706	942.984	40970	40970
544.206	942.484	40610	40610
544.706	941.984	40070	40070
545.206	941.484	40435	40435
545.706	940.984	40980	40980
546.206	940.484	40905	40905
546.706	939.984	39735	39735
547.206	939.484	39875	39875
547.706	938.984	41720	41720
548.206	938.484	41180	41180
548.706	937.984	41495	41495
549.206	937.484	41595	41595
549.706	936.984	40645	40645
550.206	936.484	41140	41140
550.706	935.984	41085	41085
551.206	935.484	40795	40795
551.706	934.984	41155	41155
552.206	934.484	40570	40570
552.706	933.984	41445	41445
553.206	933.484	41150	41150
553.706	932.984	41015	41015
554.206	932.484	40650	40650
554.706	931.984	41905	41905
555.206	931.484	41580	41580
555.706	930.984	41185	41185
556.206	930.484	41975	41975
556.706	929.984	41070	41070
557.206	929.484	41050	41050
557.706	928.984	41575	41575
558.206	928.484	41415	41415
558.706	927.984	41170	41170
559.206	927.484	41420	41420
559.706	926.984	41505	41505
560.206	926.484	40925	40925
560.706	925.984	41160	41160
561.206	925.484	40885	40885
561.706	924.984	41305	41305
562.206	924.484	40915	40915
562.706	923.984	41760	41760
563.206	923.484	40985	40985
563.706	922.984	41670	41670
564.206	922.484	41520	41520
564.706	921.984	41920	41920
565.206	921.484	42295	42295
565.706	920.984	41185	41185
566.206	920.484	42090	42090
566.706	919.984	42525	42525
567.206	919.484	42610	42610
567.706	918.984	42150	42150
568.206	918.484	42495	42495
568.706	917.984	42200	42200
569.206	917.484	41445	41445
569.706	916.984	41385	41385
570.206	916.484	42225	42225
570.706	915.984	42300	42300
571.206	915.484	42085	42085
571.706	914.984	41875	41875
572.206	914.484	42045	42045
572.706	913.984	42490	42490
573.206	913.484	42225	42225
573.706	912.984	42235	42235
574.206	912.484	42100	42100
574.706	911.984	42115	42115
575.206	911.484	42115	42115
575.706	910.984	42355	42355
576.206	910.484	42460	42460
576.706	909.984	42080	42080
577.206	909.484	42590	42590
577.706	908.984	42175	42175
578.206	908.484	42575	42575
578.706	907.984	42330	42330
579.206	907.484	41500	41500
579.706	906.984	42515	42515
580.206	906.484	42915	42915
580.706	905.984	41195	41195
581.206	905.484	42500	42500
581.706	904.984	41975	41975
582.206	904.484	42430	42430
582.706	903.984	42890	42890
583.206	903.484	42860	42860
583.706	902.984	43195	43195
584.206	902.484	42400	42400
584.706	901.984	42810	42810
585.206	901.484	42975	42975
585.706	900.984	42645	42645
586.206	900.484	42605	42605
586.706	899.984	42620	42620
587.206	899.484	42525	42525
587.706	898.984	42015	42015
588.206	898.484	42290	42290
588.706	897.984	42630	42630
589.206	897.484	42470	42470
589.706	896.984	42595	42595
590.206	896.484	43070	43070
590.706	895.984	42895	42895
591.206	895.484	42925	42925
591.706	894.984	43420	43420
592.206	894.484	42730	42730
592.706	893.984	42800	42800
593.206	893.484	42955	42955
593.706	892.984	43420	43420
594.206	892.484	43300	43300
594.706	891.984	42485	42485
595.206	891.484	43035	43035
595.706	890.984	42980	42980
596.206	890.484	42820	42820
596.706	889.984	43340	43340
597.206	889.484	43375	43375
597.706	888.984	43450	43450
598.206	888.484	42825	42825
598.706	887.984	43075	43075
599.206	887.484	43715	43715
599.706	886.984	42915	42915
600.206	886.484	42970	42970
600.706	885.984	43440	43440
601.206	885.484	44080	44080
601.706	884.984	43570	43570
602.206	884.484	43355	43355
602.706	883.984	43535	43535
603.206	883.484	42785	42785
603.706	882.984	43445	43445
604.206	882.484	43460	43460
604.706	881.984	44000	44000
605.206	881.484	43585	43585
605.706	880.984	43570	43570
606.206	880.484	43300	43300
606.706	879.984	43870	43870
607.206	879.484	44335	44335
607.706	878.984	44340	44340
608.206	878.484	44385	44385
608.706	877.984	44345	44345
609.206	877.484	44185	44185
609.706	876.984	43710	43710
610.206	876.484	43990	43990
610.706	875.984	43670	43670
611.206	875.484	44115	44115
611.706	874.984	43870	43870
612.206	874.484	44080	44080
612.706	873.984	44180	44180
613.206	873.484	43860	43860
613.706	872.984	43740	43740
614.206	872.484	44200	44200
614.706	871.984	43780	43780
615.206	871.484	44310	44310
615.706	870.984	43335	43335
616.206	870.484	44020	44020
616.706	869.984	43830	43830
617.206	869.484	43975	43975
617.706	868.984	43670	43670
618.206	868.484	43915	43915
618.706	867.984	43645	43645
619.206	867.484	43935	43935
619.706	866.984	44450	44450
620.206	866.484	44595	44595
620.706	865.984	44240	44240
621.206	865.484	44390	44390
621.706	864.984	45210	45210
622.206	864.484	44345	44345
622.706	863.984	44525	44525
623.206	863.484	44295	44295
623.706	862.984	45270	45270
624.206	862.484	44205	44205
624.706	861.984	44415	44415
625.206	861.484	44040	44040
625.706	860.984	44670	44670
626.206	860.484	44790	44790
626.706	859.984	45045	45045
627.206	859.484	44420	44420
627.706	858.984	44885	44885
628.206	858.484	44990	44990
628.706	857.984	44515	44515
629.206	857.484	45000	45000
629.706	856.984	44750	44750
630.206	856.484	44320	44320
630.706	855.984	45625	45625
631.206	855.484	44920	44920
631.706	854.984	44700	44700
632.206	854.484	45150	45150
632.706	853.984	45460	45460
633.206	853.484	45190	45190
633.706	852.984	44810	44810
634.206	852.484	44655	44655
634.706	851.984	44830	44830
635.206	851.484	45290	45290
635.706	850.984	45205	45205
636.206	850.484	44245	44245
636.706	849.984	44590	44590
637.206	849.484	44940	44940
637.706	848.984	45130	45130
638.206	848.484	44630	44630
638.706	847.984	44675	44675
639.206	847.484	45435	45435
639.706	846.984	45115	45115
640.206	846.484	45260	45260
640.706	845.984	44740	44740
641.206	845.484	45525	45525
641.706	844.984	44855	44855
642.206	844.484	44760	44760
642.706	843.984	45660	45660
643.206	843.484	45395	45395
643.706	842.984	45615	45615
644.206	842.484	45490	45490
644.706	841.984	45040	45040
645.206	841.484	45370	45370
645.706	840.984	45850	45850
646.206	840.484	45555	45555
646.706	839.984	46205	46205
647.206	839.484	46170	46170
647.706	838.984	45430	45430
648.206	838.484	45945	45945
648.706	837.984	45900	45900
649.206	837.484	45595	45595
649.706	836.984	45280	45280
650.206	836.484	45435	45435
650.706	835.984	45800	45800
651.206	835.484	45835	45835
651.706	834.984	46070	46070
652.206	834.484	45600	45600
652.706	833.984	45825	45825
653.206	833.484	45280	45280
653.706	832.984	45945	45945
654.206	832.484	46120	46120
654.706	831.984	46030	46030
655.206	831.484	45940	45940
655.706	830.984	45625	45625
656.206	830.484	45645	45645
656.706	829.984	45670	45670
657.206	829.484	45100	45100
657.706	828.984	45860	45860
658.206	828.484	45390	45390
658.706	827.984	44970	44970
659.206	827.484	46055	46055
659.706	826.984	45975	45975
660.206	826.484	46140	46140
660.706	825.984	45130	45130
661.206	825.484	45975	45975
661.706	824.984	46645	46645
662.206	824.484	45935	45935
662.706	823.984	46535	46535
663.206	823.484	46215	46215
663.706	822.984	45710	45710
664.206	822.484	46550	46550
664.706	821.984	45815	45815
665.206	821.484	46595	46595
665.706	820.984	46490	46490
666.206	820.484	46590	46590
666.706	819.984	46450	46450
667.206	819.484	46265	46265
667.706	818.984	46210	46210
668.206	818.484	46265	46265
668.706	817.984	46005	46005
669.206	817.484	46110	46110
669.706	816.984	46185	46185
670.206	816.484	46555	46555
670.706	815.984	46985	46985
671.206	815.484	46660	46660
671.706	814.984	46815	46815
672.206	814.484	46595	46595
672.706	813.984	46890	46890
673.206	813.484	46740	46740
673.706	812.984	46995	46995
674.206	812.484	46400	46400
674.706	811.984	46755	46755
675.206	811.484	46360	46360
675.706	810.984	46990	46990
676.206	810.484	47680	47680
676.706	809.984	47165	47165
677.206	809.484	47415	47415
677.706	808.984	47650	47650
678.206	808.484	46890	46890
678.706	807.984	47900	47900
679.206	807.484	47520	47520
679.706	806.984	47350	47350
680.206	806.484	47110	47110
680.706	805.984	47340	47340
681.206	805.484	47515	47515
681.706	804.984	47180	47180
682.206	804.484	46455	46455
682.706	803.984	47040	47040
683.206	803.484	47090	47090
683.706	802.984	47970	47970
684.206	802.484	47470	47470
684.706	801.984	47555	47555
685.206	801.484	47240	47240
685.706	800.984	47620	47620
686.206	800.484	47830	47830
686.706	799.984	47345	47345
687.206	799.484	46855	46855
687.706	798.984	46845	46845
688.206	798.484	47195	47195
688.706	797.984	47765	47765
689.206	797.484	47765	47765
689.706	796.984	48475	48475
690.206	796.484	47180	47180
690.706	795.984	47400	47400
691.206	795.484	48100	48100
691.706	794.984	48095	48095
692.206	794.484	48225	48225
692.706	793.984	48075	48075
693.206	793.484	47360	47360
693.706	792.984	48020	48020
694.206	792.484	47465	47465
694.706	791.984	48605	48605
695.206	791.484	47870	47870
695.706	790.984	47920	47920
696.206	790.484	48085	48085
696.706	789.984	48455	48455
697.206	789.484	48040	48040
697.706	788.984	47825	47825
698.206	788.484	48180	48180
698.706	787.984	48110	48110
699.206	787.484	48480	48480
699.706	786.984	48390	48390
700.206	786.484	47945	47945
700.706	785.984	48435	48435
701.206	785.484	47450	47450
701.706	784.984	47780	47780
702.206	784.484	49035	49035
702.706	783.984	48290	48290
703.206	783.484	49000	49000
703.706	782.984	49280	49280
704.206	782.484	48095	48095
704.706	781.984	48260	48260
705.206	781.484	47490	47490
705.706	780.984	48350	48350
706.206	780.484	48080	48080
706.706	779.984	48590	48590
707.206	779.484	48405	48405
707.706	778.984	49135	49135
708.206	778.484	48825	48825
708.706	777.984	48805	48805
709.206	777.484	49440	49440
709.706	776.984	49400	49400
710.206	776.484	49430	49430
710.706	775.984	49620	49620
711.206	775.484	48645	48645
711.706	774.984	48660	48660
712.206	774.484	49000	49000
712.706	773.984	48355	48355
713.206	773.484	48505	48505
713.706	772.984	49265	49265
714.206	772.484	49470	49470
714.706	771.984	49375	49375
715.206	771.484	48995	48995
715.706	770.984	48985	48985
716.206	770.484	48470	48470
716.706	769.984	49265	49265
717.206	769.484	49335	49335
717.706	768.984	49200	49200
718.206	768.484	49220	49220
718.706	767.984	49650	49650
719.206	767.484	48485	48485
719.706	766.984	48715	48715
720.206	766.484	48930	48930
720.706	765.984	49740	49740
721.206	765.484	50010	50010
721.706	764.984	49030	49030
722.206	764.484	49135	49135
722.706	763.984	49335	49335
723.206	763.484	49185	49185
723.706	762.984	49295	49295
724.206	762.484	49130	49130
724.706	761.984	49500	49500
725.206	761.484	49440	49440
725.706	760.984	50160	50160
726.206	760.484	50120	50120
726.706	759.984	49435	49435
727.206	759.484	49565	49565
727.706	758.984	50335	50335
728.206	758.484	50175	50175
728.706	757.984	50135	50135
729.206	757.484	50195	50195
729.706	756.984	50140	50140
730.206	756.484	50020	50020
730.706	755.984	49480	49480
731.206	755.484	49785	49785
731.706	754.984	50255	50255
732.206	754.484	49895	49895
732.706	753.984	49765	49765
733.206	753.484	50865	50865
733.706	752.984	50035	50035
734.206	752.484	49440	49440
734.706	751.984	49840	49840
735.206	751.484	49795	49795
735.706	750.984	50395	50395
736.206	750.484	50115	50115
736.706	749.984	50315	50315
737.206	749.484	50175	50175
737.706	748.984	50775	50775
738.206	748.484	49695	49695
738.706	747.984	50830	50830
739.206	747.484	50165	50165
739.706	746.984	49820	49820
740.206	746.484	50435	50435
740.706	745.984	50345	50345
741.206	745.484	50600	50600
741.706	744.984	50080	50080
742.206	744.484	50085	50085
742.706	743.984	51010	51010
743.206	743.484	50835	50835
743.706	742.984	51185	51185
744.206	742.484	49970	49970
744.706	741.984	51040	51040
745.206	741.484	50885	50885
745.706	740.984	50950	50950
746.206	740.484	50610	50610
746.706	739.984	51170	51170
747.206	739.484	51000	51000
747.706	738.984	50045	50045
748.206	738.484	51110	51110
748.706	737.984	51160	51160
749.206	737.484	51475	51475
749.706	736.984	51610	51610
750.206	736.484	51975	51975
750.706	735.984	50755	50755
751.206	735.484	51695	51695
751.706	734.984	50075	50075
752.206	734.484	50530	50530
752.706	733.984	51200	51200
753.206	733.484	50900	50900
753.706	732.984	50835	50835
754.206	732.484	51400	51400
754.706	731.984	50920	50920
755.206	731.484	51395	51395
755.706	730.984	50580	50580
756.206	730.484	51025	51025
756.706	729.984	50660	50660
757.206	729.484	51765	51765
757.706	728.984	51405	51405
758.206	728.484	51225	51225
758.706	727.984	51600	51600
759.206	727.484	51790	51790
759.706	726.984	51620	51620
760.206	726.484	51685	51685
760.706	725.984	51640	51640
761.206	725.484	50995	50995
761.706	724.984	50730	50730
762.206	724.484	51610	51610
762.706	723.984	51675	51675
763.206	723.484	50725	50725
763.706	722.984	51225	51225
764.206	722.484	51110	51110
764.706	721.984	52305	52305
765.206	721.484	51510	51510
765.706	720.984	51410	51410
766.206	720.484	52035	52035
766.706	719.984	52150	52150
767.206	719.484	51645	51645
767.706	718.984	52515	52515
768.206	718.484	50925	50925
768.706	717.984	51455	51455
769.206	717.484	52180	52180
769.706	716.984	51860	51860
770.206	716.484	52265	52265
770.706	715.984	51430	51430
771.206	715.484	52040	52040
771.706	714.984	52900	52900
772.206	714.484	52255	52255
772.706	713.984	51910	51910
773.206	713.484	51395	51395
773.706	712.984	52815	52815
774.206	712.484	53065	53065
774.706	711.984	52700	52700
775.206	711.484	52195	52195
775.706	710.984	52145	52145
776.206	710.484	52565	52565
776.706	709.984	52120	52120
777.206	709.484	51600	51600
777.706	708.984	51440	51440
778.206	708.484	51745	51745
778.706	707.984	52790	52790
779.206	707.484	52680	52680
779.706	706.984	52525	52525
780.206	706.484	52180	52180
780.706	705.984	52015	52015
781.206	705.484	52255	52255
781.706	704.984	51985	51985
782.206	704.484	52000	52000
782.706	703.984	53200	53200
783.206	703.484	52430	52430
783.706	702.984	52865	52865
784.206	702.484	52445	52445
784.706	701.984	52880	52880
785.206	701.484	52110	52110
785.706	700.984	53215	53215
786.206	700.484	52030	52030
786.706	699.984	52310	52310
787.206	699.484	51410	51410
787.706	698.984	51865	51865
788.206	698.484	52155	52155
788.706	697.984	52845	52845
789.206	697.484	52260	52260
789.706	696.984	52065	52065
790.206	696.484	52495	52495
790.706	695.984	53330	53330
791.206	695.484	52605	52605
791.706	694.984	52680	52680
792.206	694.484	52390	52390
792.706	693.984	52300	52300
793.206	693.484	52400	52400
793.706	692.984	52940	52940
794.206	692.484	52305	52305
794.706	691.984	52015	52015
795.206	691.484	52320	52320
795.706	690.984	52860	52860
796.206	690.484	53325	53325
796.706	689.984	52815	52815
797.206	689.484	52350	52350
797.706	688.984	53415	53415
798.206	688.484	53400	53400
798.706	687.984	53605	53605
799.206	687.484	53325	53325
799.706	686.984	52920	52920
800.206	686.484	53200	53200
800.706	685.984	53360	53360
801.206	685.484	53300	53300
801.706	684.984	53270	53270
802.206	684.484	53255	53255
802.706	683.984	53730	53730
803.206	683.484	53630	53630
803.706	682.984	54815	54815
804.206	682.484	54330	54330
804.706	681.984	53130	53130
805.206	681.484	53280	53280
805.706	680.984	52705	52705
806.206	680.484	53575	53575
806.706	679.984	53270	53270
807.206	679.484	53935	53935
807.706	678.984	53725	53725
808.206	678.484	54040	54040
808.706	677.984	53790	53790
809.206	677.484	54415	54415
809.706	676.984	53545	53545
810.206	676.484	54050	54050
810.706	675.984	54660	54660
811.206	675.484	54500	54500
811.706	674.984	54210	54210
812.206	674.484	53280	53280
812.706	673.984	53450	53450
813.206	673.484	54110	54110
813.706	672.984	54300	54300
814.206	672.484	53940	53940
814.706	671.984	54070	54070
815.206	671.484	53820	53820
815.706	670.984	53335	53335
816.206	670.484	54075	54075
816.706	669.984	54365	54365
817.206	669.484	55170	55170
817.706	668.984	55035	55035
818.206	668.484	53930	53930
818.706	667.984	55015	55015
819.206	667.484	54870	54870
819.706	666.984	54400	54400
820.206	666.484	54115	54115
820.706	665.984	54430	54430
821.206	665.484	54340	54340
821.706	664.984	53555	53555
822.206	664.484	54325	54325
822.706	663.984	55020	55020
823.206	663.484	54820	54820
823.706	662.984	54885	54885
824.206	662.484	54110	54110
824.706	661.984	54990	54990
825.206	661.484	54885	54885
825.706	660.984	54710	54710
826.206	660.484	54860	54860
826.706	659.984	55495	55495
827.206	659.484	54920	54920
827.706	658.984	54420	54420
828.206	658.484	54720	54720
828.706	657.984	53975	53975
829.206	657.484	54770	54770
829.706	656.984	55105	55105
830.206	656.484	55170	55170
830.706	655.984	55445	55445
831.206	655.484	55645	55645
831.706	654.984	55310	55310
832.206	654.484	55560	55560
832.706	653.984	55680	55680
833.206	653.484	55370	55370
833.706	652.984	55360	55360
834.206	652.484	54915	54915
834.706	651.984	55455	55455
835.206	651.484	55635	55635
835.706	650.984	55850	55850
836.206	650.484	55720	55720
836.706	649.984	55460	55460
837.206	649.484	55825	55825
837.706	648.984	55300	55300
838.206	648.484	55850	55850
838.706	647.984	55095	55095
839.206	647.484	55515	55515
839.706	646.984	54830	54830
840.206	646.484	55195	55195
840.706	645.984	55880	55880
841.206	645.484	55905	55905
841.706	644.984	55375	55375
842.206	644.484	56055	56055
842.706	643.984	56495	56495
843.206	643.484	56765	56765
843.706	642.984	56540	56540
844.206	642.484	57550	57550
844.706	641.984	56525	56525
845.206	641.484	56200	56200
845.706	640.984	56370	56370
846.206	640.484	56540	56540
846.706	639.984	55670	55670
847.206	639.484	55820	55820
847.706	638.984	56540	56540
848.206	638.484	56425	56425
848.706	637.984	55915	55915
849.206	637.484	56710	56710
849.706	636.984	56375	56375
850.206	636.484	56265	56265
850.706	635.984	55885	55885
851.206	635.484	56165	56165
851.706	634.984	55555	55555
852.206	634.484	55770	55770
852.706	633.984	56085	56085
853.206	633.484	56645	56645
853.706	632.984	56695	56695
854.206	632.484	56515	56515
854.706	631.984	55870	55870
855.206	631.484	56880	56880
855.706	630.984	57140	57140
856.206	630.484	56055	56055
856.706	629.984	56450	56450
857.206	629.484	56780	56780
857.706	628.984	57010	57010
858.206	628.484	57435	57435
858.706	627.984	57105	57105
859.206	627.484	56750	56750
859.706	626.984	56355	56355
860.206	626.484	56710	56710
860.706	625.984	57855	57855
861.206	625.484	56950	56950
861.706	624.984	58140	58140
862.206	624.484	56690	56690
862.706	623.984	57185	57185
863.206	623.484	57650	57650
863.706	622.984	58505	58505
864.206	622.484	57615	57615
864.706	621.984	57025	57025
865.206	621.484	57410	57410
865.706	620.984	56850	56850
866.206	620.484	57130	57130
866.706	619.984	56930	56930
867.206	619.484	57160	57160
867.706	618.984	56820	56820
868.206	618.484	57615	57615
868.706	617.984	57765	57765
869.206	617.484	58140	58140
869.706	616.984	57075	57075
870.206	616.484	57415	57415
870.706	615.984	57380	57380
871.206	615.484	57205	57205
871.706	614.984	58260	58260
872.206	614.484	58060	58060
872.706	613.984	57240	57240
873.206	613.484	57995	57995
873.706	612.984	57415	57415
874.206	612.484	57410	57410
874.706	611.984	58305	58305
875.206	611.484	57125	57125
875.706	610.984	57365	57365
876.206	610.484	58020	58020
876.706	609.984	58480	58480
877.206	609.484	57495	57495
877.706	608.984	58305	58305
878.206	608.484	58610	58610
878.706	607.984	57730	57730
879.206	607.484	58290	58290
879.706	606.984	57610	57610
880.206	606.484	57665	57665
880.706	605.984	57785	57785
881.206	605.484	58260	58260
881.706	604.984	58560	58560
882.206	604.484	57890	57890
882.706	603.984	59085	59085
883.206	603.484	59120	59120
883.706	602.984	58395	58395
884.206	602.484	58345	58345
884.706	601.984	58420	58420
885.206	601.484	58205	58205
885.706	600.984	58615	58615
886.206	600.484	58855	58855
886.706	599.984	58680	58680
887.206	599.484	59260	59260
887.706	598.984	59635	59635
888.206	598.484	58825	58825
888.706	597.984	58835	58835
889.206	597.484	59530	59530
889.706	596.984	59400	59400
890.206	596.484	58795	58795
890.706	595.984	58810	58810
891.206	595.484	59160	59160
891.706	594.984	58795	58795
892.206	594.484	59680	59680
892.706	593.984	59915	59915
893.206	593.484	58695	58695
893.706	592.984	58480	58480
894.206	592.484	59450	59450
894.706	591.984	59755	59755
895.206	591.484	60655	60655
895.706	590.984	59160	59160
896.206	590.484	59345	59345
896.706	589.984	58780	58780
897.206	589.484	60175	60175
897.706	588.984	59910	59910
898.206	588.484	59620	59620
898.706	587.984	59915	59915
899.206	587.484	59675	59675
899.706	586.984	60335	60335
900.206	586.484	59640	59640
900.706	585.984	59920	59920
901.206	585.484	59735	59735
901.706	584.984	59580	59580
902.206	584.484	60035	60035
902.706	583.984	60040	60040
903.206	583.484	60755	60755
903.706	582.984	60735	60735
904.206	582.484	61085	61085
904.706	581.984	59930	59930
905.206	581.484	59810	59810
905.706	580.984	60095	60095
906.206	580.484	59995	59995
906.706	579.984	59875	59875
907.206	579.484	59665	59665
907.706	578.984	60360	60360
908.206	578.484	60325	60325
908.706	577.984	60015	60015
909.206	577.484	59900	59900
909.706	576.984	59755	59755
910.206	576.484	59795	59795
910.706	575.984	60335	60335
911.206	575.484	60840	60840
911.706	574.984	59910	59910
912.206	574.484	59405	59405
912.706	573.984	59910	59910
913.206	573.484	60055	60055
913.706	572.984	60560	60560
914.206	572.484	59900	59900
914.706	571.984	59830	59830
915.206	571.484	58950	58950
915.706	570.984	59775	59775
916.206	570.484	60590	60590
916.706	569.984	59965	59965
917.206	569.484	60090	60090
917.706	568.984	60110	60110
918.206	568.484	59450	59450
918.706	567.984	59425	59425
919.206	567.484	59515	59515
919.706	566.984	60125	60125
920.206	566.484	60725	60725
920.706	565.984	60965	60965
921.206	565.484	60810	60810
921.706	564.984	60835	60835
922.206	564.484	60515	60515
922.706	563.984	60905	60905
923.206	563.484	61505	61505
923.706	562.984	61260	61260
924.206	562.484	61450	61450
924.706	561.984	61110	61110
925.206	561.484	62555	62555
925.706	560.984	63330	63330
926.206	560.484	62775	62775
926.706	559.984	62405	62405
927.206	559.484	63525	63525
927.706	558.984	63990	63990
928.206	558.484	64380	64380
928.706	557.984	64520	64520
929.206	557.484	64125	64125
929.706	556.984	64680	64680
930.206	556.484	64660	64660
930.706	555.984	64895	64895
931.206	555.484	64480	64480
931.706	554.984	64110	64110
932.206	554.484	63790	63790
932.706	553.984	63365	63365
933.206	553.484	62875	62875
933.706	552.984	61895	61895
934.206	552.484	61200	61200
934.706	551.984	60580	60580
935.206	551.484	59700	59700
935.706	550.984	59100	59100
936.206	550.484	58570	58570
936.706	549.984	58590	58590
937.206	549.484	58450	58450
937.706	548.984	57355	57355
938.206	548.484	56370	56370
938.706	547.984	56575	56575
939.206	547.484	54955	54955
939.706	546.984	55070	55070
940.206	546.484	54275	54275
940.706	545.984	53935	53935
941.206	545.484	53515	53515
941.706	544.984	52720	52720
942.206	544.484	50935	50935
942.706	543.984	51050	51050
943.206	543.484	49425	49425
943.706	542.984	49705	49705
944.206	542.484	49190	49190
944.706	541.984	47745	47745
945.206	541.484	47970	47970
945.706	540.984	47665	47665
946.206	540.484	47710	47710
946.706	539.984	47905	47905
947.206	539.484	47915	47915
947.706	538.984	48665	47908.8
948.206	538.484	48655	47902.6
948.706	537.984	49635	47888.2
949.206	537.484	50705	47864.7
949.706	536.984	51475	47834.7
950.206	536.484	52535	47795.7
950.706	535.984	55295	47733.3
951.206	535.484	61350	47620.1
951.706	534.984	69720	47436.4
952.206	534.484	84825	47125.6
952.706	533.984	105380	46641.4
953.206	533.484	135125	45905.8
953.706	532.984	168400	44887.5
954.206	532.484	189905	43682
954.706	531.984	187585	42485.8
955.206	531.484	162075	41491.7
955.706	530.984	125850	40790.4
956.206	530.484	91765	40366.7
956.706	529.984	67940	40137.5
957.206	529.484	53515	40026.3
957.706	528.984	45750	39978.7
958.206	528.484	42850	39954.8
958.706	527.984	41135	39945
959.206	527.484	39945	39945
959.706	526.984	40030	40030
960.206	526.484	39015	39015
960.706	525.984	39475	39475
961.206	525.484	39415	39415
961.706	524.984	39300	39300
962.206	524.484	39010	39010
962.706	523.984	38870	38870
963.206	523.484	38535	38535
963.706	522.984	38240	38240
964.206	522.484	38430	38430
964.706	521.984	38675	38675
965.206	521.484	38465	38465
965.706	520.984	38255	38255
966.206	520.484	38670	38670
966.706	519.984	38375	38375
967.206	519.484	38540	38540
967.706	518.984	38855	38855
968.206	518.484	38935	38935
968.706	517.984	39270	39270
969.206	517.484	38285	38285
969.706	516.984	38095	38095
970.206	516.484	38835	38835
970.706	515.984	38240	38240
971.206	515.484	38900	38900
971.706	514.984	38850	38850
972.206	514.484	38270	38270
972.706	513.984	38995	38995
973.206	513.484	38975	38975
973.706	512.984	38425	38425
974.206	512.484	37925	37925
974.706	511.984	38780	38780
975.206	511.484	38820	38820
975.706	510.984	38995	38995
976.206	510.484	38560	38560
976.706	509.984	38635	38635
977.206	509.484	38450	38450
977.706	508.984	38775	38775
978.206	508.484	38250	38250
978.706	507.984	38805	38805
979.206	507.484	39450	39450
979.706	506.984	39340	39340
980.206	506.484	39660	39660
980.706	505.984	39345	39345
981.206	505.484	39265	39265
981.706	504.984	38990	38990
982.206	504.484	39460	39460
982.706	503.984	39635	39635
983.206	503.484	39045	39045
983.706	502.984	39300	39300
984.206	502.484	38715	38715
984.706	501.984	38330	38330
985.206	501.484	39440	39440
985.706	500.984	38610	38610
986.206	500.484	39640	39640
986.706	499.984	39090	39090
987.206	499.484	39125	39125
987.706	498.984	39760	39760
988.206	498.484	39590	39590
988.706	497.984	39935	39935
989.206	497.484	39675	39675
989.706	496.984	39205	39205
990.206	496.484	39695	39695
990.706	495.984	40685	40685
991.206	495.484	40340	40340
991.706	494.984	40185	40185
992.206	494.484	39745	39745
992.706	493.984	39995	39995
993.206	493.484	39985	39985
993.706	492.984	39395	39395
994.206	492.484	39710	39710
994.706	491.984	38590	38590
995.206	491.484	39050	39050
995.706	490.984	39725	39725
996.206	490.484	38935	38935
996.706	489.984	38655	38655
997.206	489.484	39205	39205
997.706	488.984	39700	39700
998.206	488.484	39910	39910
998.706	487.984	39390	39390
999.206	487.484	39820	39820
999.706	486.984	39965	39965
1000.21	486.484	40290	40290
1000.71	485.984	39830	39830
1001.21	485.484	40070	40070
1001.71	484.984	39455	39455
1002.21	484.484	39690	39690
1002.71	483.984	39700	39700
1003.21	483.484	39855	39855
1003.71	482.984	39680	39680
1004.21	482.484	40125	40125
1004.71	481.984	40030	40030
1005.21	481.484	40225	40225
1005.71	480.984	40060	40060
1006.21	480.484	40055	40055
1006.71	479.984	39700	39700
1007.21	479.484	40435	40435
1007.71	478.984	40790	40790
1008.21	478.484	39915	39915
1008.71	477.984	39710	39710
1009.21	477.484	39580	39580
1009.71	476.984	38935	38935
1010.21	476.484	39810	39810
1010.71	475.984	40275	40275
1011.21	475.484	40420	40420
1011.71	474.984	40450	40450
1012.21	474.484	40685	40685
1012.71	473.984	40690	40690
1013.21	473.484	40840	40840
1013.71	472.984	40200	40200
1014.21	472.484	39840	39840
1014.71	471.984	39805	39805
1015.21	471.484	40620	40620
1015.71	470.984	39855	39855
1016.21	470.484	40170	40170
1016.71	469.984	39885	39885
1017.21	469.484	40180	40180
1017.71	468.984	40475	40475
1018.21	468.484	40085	40085
1018.71	467.984	40080	40080
1019.21	467.484	40405	40405
1019.71	466.984	40700	40700
1020.21	466.484	40985	40985
1020.71	465.984	40820	40820
1021.21	465.484	39875	39875
1021.71	464.984	40730	40730
1022.21	464.484	40680	40680
1022.71	463.984	41100	41100
1023.21	463.484	40660	40660
1023.71	462.984	40830	40830
1024.21	462.484	41045	41045
1024.71	461.984	40185	40185
1025.21	461.484	41070	41070
1025.71	460.984	40715	40715
1026.21	460.484	40550	40550
1026.71	459.984	41090	41090
1027.21	459.484	40875	40875
1027.71	458.984	41225	41225
1028.21	458.484	41490	41490
1028.71	457.984	41280	41280
1029.21	457.484	41465	41465
1029.71	456.984	40415	40415
1030.21	456.484	41225	41225
1030.71	455.984	40645	40645
1031.21	455.484	41300	41300
1031.71	454.984	41250	41250
1032.21	454.484	40820	40820
1032.71	453.984	41140	41140
1033.21	453.484	41635	41635
1033.71	452.984	41630	41630
1034.21	452.484	41505	41505
1034.71	451.984	41045	41045
1035.21	451.484	41735	41735
1035.71	450.984	41920	41920
1036.21	450.484	41800	41800
1036.71	449.984	41650	41650
1037.21	449.484	41965	41965
1037.71	448.984	41400	41400
1038.21	448.484	41780	41780
1038.71	447.984	41650	41650
1039.21	447.484	41905	41905
1039.71	446.984	41540	41540
1040.21	446.484	41720	41720
1040.71	445.984	41730	41730
1041.21	445.484	42065	42065
1041.71	444.984	41325	41325
1042.21	444.484	41910	41910
1042.71	443.984	41855	41855
1043.21	443.484	41705	41705
1043.71	442.984	41790	41790
1044.21	442.484	41815	41815
1044.71	441.984	42655	42655
1045.21	441.484	42375	42375
1045.71	440.984	42420	42420
1046.21	440.484	42375	42375
1046.71	439.984	42965	42965
1047.21	439.484	41895	41895
1047.71	438.984	42810	42810
1048.21	438.484	42290	42290
1048.71	437.984	42100	42100
1049.21	437.484	42365	42365
1049.71	436.984	42165	42165
1050.21	436.484	42245	42245
1050.71	435.984	42490	42490
1051.21	435.484	42195	42195
1051.71	434.984	41780	41780
1052.21	434.484	41685	41685
1052.71	433.984	42720	42720
1053.21	433.484	42175	42175
1053.71	432.984	43390	43390
1054.21	432.484	43340	43340
1054.71	431.984	42675	42675
1055.21	431.484	42395	42395
1055.71	430.984	42140	42140
1056.21	430.484	42205	42205
1056.71	429.984	41625	41625
1057.21	429.484	42010	42010
1057.71	428.984	41870	41870
1058.21	428.484	42010	42010
1058.71	427.984	42495	42495
1059.21	427.484	42710	42710
1059.71	426.984	42745	42745
1060.21	426.484	42670	42670
1060.71	425.984	42510	42510
1061.21	425.484	43525	43525
1061.71	424.984	43120	43120
1062.21	424.484	43045	43045
1062.71	423.984	43010	43010
1063.21	423.484	42475	42475
1063.71	422.984	42545	42545
1064.21	422.484	42960	42960
1064.71	421.984	43085	43085
1065.21	421.484	42355	42355
1065.71	420.984	42645	42645
1066.21	420.484	43130	43130
1066.71	419.984	43130	43130
1067.21	419.484	42760	42760
1067.71	418.984	42865	42865
1068.21	418.484	42215	42215
1068.71	417.984	42400	42400
1069.21	417.484	42365	42365
1069.71	416.984	42115	42115
1070.21	416.484	43115	43115
1070.71	415.984	42075	42075
1071.21	415.484	42830	42830
1071.71	414.984	43220	43220
1072.21	414.484	43455	43455
1072.71	413.984	42855	42855
1073.21	413.484	42645	42645
1073.71	412.984	42475	42475
1074.21	412.484	42840	42840
1074.71	411.984	42590	42590
1075.21	411.484	42840	42840
1075.71	410.984	42915	42915
1076.21	410.484	42920	42920
1076.71	409.984	42910	42910
1077.21	409.484	43330	43330
1077.71	408.984	43410	43410
1078.21	408.484	42495	42495
1078.71	407.984	43215	43215
1079.21	407.484	43640	43640
1079.71	406.984	44240	44240
1080.21	406.484	44210	44210
1080.71	405.984	43360	43360
1081.21	405.484	43755	43755
1081.71	404.984	43725	43725
1082.21	404.484	44195	44195
1082.71	403.984	44755	44755
1083.21	403.484	44050	44050
1083.71	402.984	44870	44033.5
1084.21	402.484	44975	44014.6
1084.71	401.984	46655	43961.5
1085.21	401.484	46525	43909.9
1085.71	400.984	46820	43851.4
1086.21	400.484	47585	43776.4
1086.71	399.984	47140	43708.7
1087.21	399.484	46975	43643
1087.71	398.984	46520	43585.2
1088.21	398.484	45850	43539.7
1088.71	397.984	44020	43530
1089.21	397.484	43530	43530
1089.71	396.984	43830	43830
1090.21	396.484	43055	43055
1090.71	395.984	43030	43030
1091.21	395.484	42815	42815
1091.71	394.984	43820	43820
1092.21	394.484	43755	43755
1092.71	393.984	43745	43745
1093.21	393.484	43945	43945
1093.71	392.984	43590	43590
1094.21	392.484	43725	43725
1094.71	391.984	43620	43620
1095.21	391.484	43930	43930
1095.71	390.984	43520	43520
1096.21	390.484	43810	43810
1096.71	389.984	43805	43805
1097.21	389.484	44125	44125
1097.71	388.984	44195	44195
1098.21	388.484	44080	44080
1098.71	387.984	44175	44175
1099.21	387.484	43915	43915
1099.71	386.984	43420	43420
1100.21	386.484	44055	44055
1100.71	385.984	43910	43910
1101.21	385.484	44475	44475
1101.71	384.984	44345	44345
1102.21	384.484	44640	44640
1102.71	383.984	43585	43585
1103.21	383.484	44265	44265
1103.71	382.984	44675	44675
1104.21	382.484	44370	44370
1104.71	381.984	44140	44140
1105.21	381.484	44215	44215
1105.71	380.984	44150	44150
1106.21	380.484	43900	43900
1106.71	379.984	44360	44360
1107.21	379.484	44245	44245
1107.71	378.984	44255	44255
1108.21	378.484	43800	43800
1108.71	377.984	43980	43980
1109.21	377.484	44510	44510
1109.71	376.984	44430	44430
1110.21	376.484	45110	45110
1110.71	375.984	44940	44940
1111.21	375.484	45425	45425
1111.71	374.984	44550	44550
1112.21	374.484	44665	44665
1112.71	373.984	45580	45580
1113.21	373.484	45245	45245
1113.71	372.984	45050	45050
1114.21	372.484	45140	45140
1114.71	371.984	45810	45810
1115.21	371.484	45120	45120
1115.71	370.984	44965	44965
1116.21	370.484	44100	44100
1116.71	369.984	44645	44645
1117.21	369.484	45590	45590
1117.71	368.984	45445	45445
1118.21	368.484	45350	45350
1118.71	367.984	45480	45480
1119.21	367.484	45190	45190
1119.71	366.984	45715	45715
1120.21	366.484	45525	45525
1120.71	365.984	45560	45560
1121.21	365.484	45340	45340
1121.71	364.984	45495	45495
1122.21	364.484	45425	45425
1122.71	363.984	45660	45660
1123.21	363.484	45125	45125
1123.71	362.984	45180	45180
1124.21	362.484	45940	45940
1124.71	361.984	45805	45805
1125.21	361.484	45625	45625
1125.71	360.984	46035	46035
1126.21	360.484	45570	45570
1126.71	359.984	45585	45585
1127.21	359.484	45985	45985
1127.71	358.984	45550	45550
1128.21	358.484	46725	46725
1128.71	357.984	45795	45795
1129.21	357.484	45965	45965
1129.71	356.984	46250	46250
1130.21	356.484	46780	46780
1130.71	355.984	46245	46245
1131.21	355.484	46065	46065
1131.71	354.984	47060	47060
1132.21	354.484	47525	47525
1132.71	353.984	46475	46475
1133.21	353.484	46545	46545
1133.71	352.984	46795	46795
1134.21	352.484	47855	47855
1134.71	351.984	47830	47830
1135.21	351.484	47950	47950
1135.71	350.984	47620	47620
1136.21	350.484	47600	47600
1136.71	349.984	47910	47910
1137.21	349.484	47515	47515
1137.71	348.984	47945	47945
1138.21	348.484	48670	48670
1138.71	347.984	48280	48280
1139.21	347.484	49200	49200
1139.71	346.984	48765	48765
1140.21	346.484	47650	47650
1140.71	345.984	47645	47645
1141.21	345.484	47775	47775
1141.71	344.984	47700	47700
1142.21	344.484	46835	46835
1142.71	343.984	47760	47760
1143.21	343.484	47130	47130
1143.71	342.984	47115	47115
1144.21	342.484	47430	47430
1144.71	341.984	47680	47680
1145.21	341.484	47545	47545
1145.71	340.984	47275	47275
1146.21	340.484	47400	47400
1146.71	339.984	47245	47245
1147.21	339.484	47365	47365
1147.71	338.984	46385	46385
1148.21	338.484	47275	47275
1148.71	337.984	47835	47835
1149.21	337.484	47545	47545
1149.71	336.984	47330	47330
1150.21	336.484	46560	46560
1150.71	335.984	46695	46695
1151.21	335.484	46350	46350
1151.71	334.984	46130	46130
1152.21	334.484	46680	46680
1152.71	333.984	46655	46655
1153.21	333.484	46190	46190
1153.71	332.984	46165	46165
1154.21	332.484	46650	46650
1154.71	331.984	46135	46135
1155.21	331.484	47015	47015
1155.71	330.984	46825	46825
1156.21	330.484	46415	46415
1156.71	329.984	46505	46505
1157.21	329.484	46740	46740
1157.71	328.984	46335	46335
1158.21	328.484	46075	46075
1158.71	327.984	46155	46155
1159.21	327.484	45785	45785
1159.71	326.984	46360	46360
1160.21	326.484	46865	46865
1160.71	325.984	46910	46910
1161.21	325.484	47515	47515
1161.71	324.984	48110	48110
1162.21	324.484	47525	47525
1162.71	323.984	47405	47405
1163.21	323.484	47545	47545
1163.71	322.984	49020	49020
1164.21	322.484	48590	48590
1164.71	321.984	48700	48700
1165.21	321.484	49460	49460
1165.71	320.984	49600	49600
1166.21	320.484	49330	49330
1166.71	319.984	49565	49565
1167.21	319.484	49860	49860
1167.71	318.984	50455	50455
1168.21	318.484	50825	50825
1168.71	317.984	51210	51210
1169.21	317.484	50485	50485
1169.71	316.984	50180	50180
1170.21	316.484	49860	49860
1170.71	315.984	50655	50655
1171.21	315.484	51385	51385
1171.71	314.984	52340	52340
1172.21	314.484	52010	52010
1172.71	313.984	52365	52365
1173.21	313.484	52160	52160
1173.71	312.984	52080	52080
1174.21	312.484	51795	51795
1174.71	311.984	51950	51950
1175.21	311.484	52390	52390
1175.71	310.984	52135	52135
1176.21	310.484	51850	51850
1176.71	309.984	51575	51575
1177.21	309.484	51605	51605
1177.71	308.984	51045	51045
1178.21	308.484	51210	51210
1178.71	307.984	50810	50810
1179.21	307.484	49435	49435
1179.71	306.984	48570	48570
1180.21	306.484	47165	47165
1180.71	305.984	46035	46035
1181.21	305.484	44530	44530
1181.71	304.984	43020	43020
1182.21	304.484	41700	41700
1182.71	303.984	40320	40320
1183.21	303.484	39375	39375
1183.71	302.984	38550	38550
1184.21	302.484	36915	36915
1184.71	301.984	35310	35310
1185.21	301.484	35195	35195
1185.71	300.984	33460	33460
1186.21	300.484	32405	32405
1186.71	299.984	31720	31720
1187.21	299.484	30365	30365
1187.71	298.984	29425	29425
1188.21	298.484	29200	29200
1188.71	297.984	28560	28560
1189.21	297.484	28015	28015
1189.71	296.984	26515	26515
1190.21	296.484	26225	26225
1190.71	295.984	25865	25865
1191.21	295.484	25900	25900
1191.71	294.984	25740	25740
1192.21	294.484	26545	25730.1
1192.71	293.984	27100	25713.3
1193.21	293.484	26760	25700.5
1193.71	292.984	27000	25684.5
1194.21	292.484	27830	25658.2
1194.71	291.984	29430	25611.9
1195.21	291.484	31165	25543.8
1195.71	290.984	33985	25440.2
1196.21	290.484	37340	25294.2
1196.71	289.984	40740	25104.7
1197.21	289.484	46345	24844.1
1197.71	288.984	51170	24521.1
1198.21	288.484	57335	24118.5
1198.71	287.984	68520	23573.7
1199.21	287.484	86715	22798.9
1199.71	286.984	110105	21727.7
1200.21	286.484	131865	20376.4
1200.71	285.984	149070	18797.4
1201.21	285.484	167680	16970.6
1201.71	284.984	200705	14716.3
1202.21	284.484	224905	12137.3
1202.71	283.984	206090	9757.58
1203.21	283.484	149740	8040.05
1203.71	282.984	84045	7107.49
1204.21	282.484	35540	6758.64
1204.71	281.984	15330	6653.47
1205.21	281.484	10195	6610.01
1205.71	280.984	8410	6587.93
1206.21	280.484	7375	6578.27
1206.71	279.984	6845	6575
1207.21	279.484	6575	6575
1207.71	278.984	5695	5695
1208.21	278.484	5335	5335
1208.71	277.984	5220	5220
1209.21	277.484	5060	5060
1209.71	276.984	4945	4945
1210.21	276.484	5010	5010
1210.71	275.984	4885	4885
1211.21	275.484	4745	4745
1211.71	274.984	4735	4735
1212.21	274.484	4740	4740
1212.71	273.984	4655	4655
1213.21	273.484	4670	4670
1213.71	272.984	4960	4960
1214.21	272.484	4850	4850
1214.71	271.984	4995	4995
1215.21	271.484	4880	4880
1215.71	270.984	5085	5085
1216.21	270.484	5245	5245
1216.71	269.984	4980	4980
1217.21	269.484	4910	4910
1217.71	268.984	4905	4905
1218.21	268.484	4505	4505
1218.71	267.984	4530	4530
1219.21	267.484	4565	4565
1219.71	266.984	4565	4565
1220.21	266.484	4345	4345
1220.71	265.984	4490	4490
1221.21	265.484	4525	4525
1221.71	264.984	4650	4650
1222.21	264.484	4240	4240
1222.71	263.984	4360	4360
1223.21	263.484	4410	4410
1223.71	262.984	4190	4190
1224.21	262.484	4245	4245
1224.71	261.984	4215	4215
1225.21	261.484	4345	4345
1225.71	260.984	4375	4375
1226.21	260.484	4370	4370
1226.71	259.984	4575	4575
1227.21	259.484	4495	4495
1227.71	258.984	4415	4415
1228.21	258.484	4455	4455
1228.71	257.984	4425	4425
1229.21	257.484	4580	4580
1229.71	256.984	4305	4305
1230.21	256.484	4355	4355
1230.71	255.984	4490	4490
1231.21	255.484	4635	4635
1231.71	254.984	4310	4310
1232.21	254.484	4445	4445
1232.71	253.984	4180	4180
1233.21	253.484	4045	4045
1233.71	252.984	4400	4400
1234.21	252.484	4470	4470
1234.71	251.984	4280	4280
1235.21	251.484	4385	4385
1235.71	250.984	4180	4180
1236.21	250.484	4365	4365
1236.71	249.984	4300	4300
1237.21	249.484	4455	4455
1237.71	248.984	4600	4600
1238.21	248.484	4505	4505
1238.71	247.984	4490	4490
1239.21	247.484	4410	4410
1239.71	246.984	4290	4290
1240.21	246.484	4155	4155
1240.71	245.984	4460	4460
1241.21	245.484	4275	4275
1241.71	244.984	4265	4265
1242.21	244.484	4250	4250
1242.71	243.984	4415	4415
1243.21	243.484	4190	4190
1243.71	242.984	4335	4335
1244.21	242.484	4185	4185
1244.71	241.984	4320	4320
1245.21	241.484	4065	4065
1245.71	240.984	4235	4235
1246.21	240.484	4175	4175
1246.71	239.984	4200	4200
1247.21	239.484	4395	4395
1247.71	238.984	4490	4490
1248.21	238.484	4370	4370
1248.71	237.984	4155	4155
1249.21	237.484	4360	4360
1249.71	236.984	4540	4540
1250.21	236.484	4245	4245
1250.71	235.984	4370	4370
1251.21	235.484	4460	4460
1251.71	234.984	4545	4545
1252.21	234.484	4690	4690
1252.71	233.984	5065	5065
1253.21	233.484	5200	5200
1253.71	232.984	5120	5120
1254.21	232.484	5210	5210
1254.71	231.984	5575	5575
1255.21	231.484	5500	5500
1255.71	230.984	5430	5430
1256.21	230.484	5015	5015
1256.71	229.984	4840	4840
1257.21	229.484	4950	4950
1257.71	228.984	4760	4760
1258.21	228.484	4565	4565
1258.71	227.984	4330	4330
1259.21	227.484	4345	4345
1259.71	226.984	4435	4435
1260.21	226.484	4510	4510
1260.71	225.984	4440	4440
1261.21	225.484	4250	4250
1261.71	224.984	4475	4475
1262.21	224.484	4220	4220
1262.71	223.984	4460	4460
1263.21	223.484	4360	4360
1263.71	222.984	4255	4255
1264.21	222.484	4260	4260
1264.71	221.984	4060	4060
1265.21	221.484	4185	4185
1265.71	220.984	4270	4270
1266.21	220.484	4335	4335
1266.71	219.984	4255	4255
1267.21	219.484	3965	3965
1267.71	218.984	4000	4000
1268.21	218.484	4270	4270
1268.71	217.984	4150	4150
1269.21	217.484	4230	4230
1269.71	216.984	4310	4310
1270.21	216.484	4100	4100
1270.71	215.984	4225	4225
1271.21	215.484	4235	4235
1271.71	214.984	4265	4265
1272.21	214.484	4200	4200
1272.71	213.984	4065	4065
1273.21	213.484	4330	4330
1273.71	212.984	4110	4110
1274.21	212.484	4220	4220
1274.71	211.984	4355	4355
1275.21	211.484	4125	4125
1275.71	210.984	4140	4140
1276.21	210.484	3975	3975
1276.71	209.984	3930	3930
1277.21	209.484	4270	4270
1277.71	208.984	4185	4185
1278.21	208.484	4435	4435
1278.71	207.984	3925	3925
1279.21	207.484	4440	4440
1279.71	206.984	4030	4030
1280.21	206.484	4250	4250
1280.71	205.984	4080	4080
1281.21	205.484	4045	4045
1281.71	204.984	4385	4385
1282.21	204.484	4330	4330
1282.71	203.984	4110	4110
1283.21	203.484	4190	4109.41
1283.71	202.984	4270	4108.24
1284.21	202.484	4460	4105.66
1284.71	201.984	4520	4102.62
1285.21	201.484	4965	4096.3
1285.71	200.984	5120	4088.8
1286.21	200.484	5505	4078.42
1286.71	199.984	5420	4068.59
1287.21	199.484	5735	4056.38
1287.71	198.984	5330	4047.05
1288.21	198.484	4985	4040.18
1288.71	197.984	4525	4036.63
1289.21	197.484	4585	4032.61
1289.71	196.984	4640	4028.16
1290.21	196.484	4325	4025.98
1290.71	195.984	4160	4025
1291.21	195.484	4025	4025
1291.71	194.984	4025	4025
1292.21	194.484	3910	3910
1292.71	193.984	4140	4140
1293.21	193.484	4100	4100
1293.71	192.984	4200	4200
1294.21	192.484	4260	4260
1294.71	191.984	3950	3950
1295.21	191.484	4170	4170
1295.71	190.984	4080	4080
1296.21	190.484	4240	4240
1296.71	189.984	3980	3980
1297.21	189.484	4200	4200
1297.71	188.984	4165	4165
1298.21	188.484	4125	4125
1298.71	187.984	4065	4065
1299.21	187.484	4120	4120
1299.71	186.984	3980	3980
1300.21	186.484	4260	4260
1300.71	185.984	4255	4255
1301.21	185.484	4130	4130
1301.71	184.984	4265	4265
1302.21	184.484	4125	4125
1302.71	183.984	3895	3895
1303.21	183.484	4090	4090
1303.71	182.984	3900	3900
1304.21	182.484	4115	4115
1304.71	181.984	3955	3955
1305.21	181.484	4065	4065
1305.71	180.984	3970	3970
1306.21	180.484	3900	3900
1306.71	179.984	4000	4000
1307.21	179.484	3965	3965
1307.71	178.984	4020	4020
1308.21	178.484	3970	3970
1308.71	177.984	3945	3945
1309.21	177.484	4250	4250
1309.71	176.984	4040	4040
1310.21	176.484	4170	4170
1310.71	175.984	4100	4100
1311.21	175.484	3885	3885
1311.71	174.984	3830	3830
1312.21	174.484	3900	3900
1312.71	173.984	3950	3950
1313.21	173.484	4340	4340
1313.71	172.984	4070	4070
1314.21	172.484	4195	4068.4
1314.71	171.984	4170	4067.1
1315.21	171.484	4280	4064.38
1315.71	170.984	4580	4057.78
1316.21	170.484	4655	4050.14
1316.71	169.984	5115	4036.52
1317.21	169.484	5660	4015.76
1317.71	168.984	6110	3988.97
1318.21	168.484	6450	3957.49
1318.71	167.984	6275	3927.85
1319.21	167.484	5985	3901.54
1319.71	166.984	5120	3885.96
1320.21	166.484	4545	3877.53
1320.71	165.984	4075	3875
1321.21	165.484	3875	3875
1321.71	164.984	3880	3880
1322.21	164.484	3745	3745
1322.71	163.984	3630	3630
1323.21	163.484	3620	3620
1323.71	162.984	3775	3775
1324.21	162.484	3595	3595
1324.71	161.984	3695	3695
1325.21	161.484	3845	3845
1325.71	160.984	3675	3675
1326.21	160.484	3790	3790
1326.71	159.984	3990	3990
1327.21	159.484	3825	3825
1327.71	158.984	3935	3935
1328.21	158.484	3900	3900
1328.71	157.984	4125	4125
1329.21	157.484	4470	4470
1329.71	156.984	4725	4725
1330.21	156.484	4645	4645
1330.71	155.984	4795	4795
1331.21	155.484	5050	5050
1331.71	154.984	5435	5435
1332.21	154.484	5640	5640
1332.71	153.984	6070	6070
1333.21	153.484	5985	5985
1333.71	152.984	5925	5925
1334.21	152.484	5460	5460
1334.71	151.984	5250	5250
1335.21	151.484	5015	5015
1335.71	150.984	4485	4485
1336.21	150.484	4105	4105
1336.71	149.984	4130	4130
1337.21	149.484	3820	3820
1337.71	148.984	3585	3585
1338.21	148.484	3795	3795
1338.71	147.984	3780	3780
1339.21	147.484	3775	3775
1339.71	146.984	3705	3705
1340.21	146.484	3610	3610
1340.71	145.984	3540	3540
1341.21	145.484	3595	3595
1341.71	144.984	3765	3765
1342.21	144.484	3575	3575
1342.71	143.984	3705	3705
1343.21	143.484	3725	3725
1343.71	142.984	3685	3685
1344.21	142.484	3915	3915
1344.71	141.984	3900	3900
1345.21	141.484	3845	3845
1345.71	140.984	3670	3670
1346.21	140.484	3750	3750
1346.71	139.984	3710	3710
1347.21	139.484	3840	3840
1347.71	138.984	3675	3675
1348.21	138.484	3675	3675
1348.71	137.984	3500	3500
1349.21	137.484	3535	3535
1349.71	136.984	3785	3785
1350.21	136.484	3610	3610
1350.71	135.984	3615	3615
1351.21	135.484	3660	3660
1351.71	134.984	3520	3520
1352.21	134.484	3900	3900
1352.71	133.984	3945	3945
1353.21	133.484	3760	3760
1353.71	132.984	3730	3730
1354.21	132.484	3800	3800
1354.71	131.984	3855	3855
1355.21	131.484	3660	3660
1355.71	130.984	3745	3745
1356.21	130.484	3675	3675
1356.71	129.984	3635	3635
1357.21	129.484	3765	3765
1357.71	128.984	3745	3745
1358.21	128.484	3735	3735
1358.71	127.984	3720	3720
1359.21	127.484	3940	3940
1359.71	126.984	3765	3765
1360.21	126.484	3850	3850
1360.71	125.984	3830	3830
1361.21	125.484	4005	4005
1361.71	124.984	3805	3805
1362.21	124.484	3750	3750
1362.71	123.984	3800	3800
1363.21	123.484	3630	3630
1363.71	122.984	3810	3810
1364.21	122.484	3735	3735
1364.71	121.984	3585	3585
1365.21	121.484	3735	3735
1365.71	120.984	3995	3995
1366.21	120.484	3835	3835
1366.71	119.984	3630	3630
1367.21	119.484	3575	3575
1367.71	118.984	3895	3895
1368.21	118.484	3715	3715
1368.71	117.984	3885	3885
1369.21	117.484	3520	3520
1369.71	116.984	3775	3775
1370.21	116.484	3935	3935
1370.71	115.984	3815	3815
1371.21	115.484	3740	3740
1371.71	114.984	3675	3675
1372.21	114.484	3635	3635
1372.71	113.984	3785	3785
1373.21	113.484	3590	3590
1373.71	112.984	3840	3840
1374.21	112.484	3690	3690
1374.71	111.984	3530	3530
1375.21	111.484	3310	3310
1375.71	110.984	3530	3530
1376.21	110.484	3600	3600
1376.71	109.984	3685	3685
1377.21	109.484	3630	3630
1377.71	108.984	3775	3775
1378.21	108.484	3730	3730
1378.71	107.984	3770	3770
1379.21	107.484	3660	3660
1379.71	106.984	3685	3685
1380.21	106.484	4075	3683.35
1380.71	105.984	4105	3681.57
1381.21	105.484	4315	3678.9
1381.71	104.984	4800	3674.16
1382.21	104.484	4910	3668.95
1382.71	103.984	5165	3662.63
1383.21	103.484	5465	3655.02
1383.71	102.984	5655	3646.57
1384.21	102.484	5795	3637.5
1384.71	101.984	5660	3628.96
1385.21	101.484	5360	3621.65
1385.71	100.984	4875	3616.36
1386.21	100.484	4560	3612.37
1386.71	99.984	4075	3610.42
1387.21	99.484	3710	3610
1387.71	98.984	3610	3610
1388.21	98.484	3800	3800
1388.71	97.984	3570	3570
1389.21	97.484	3440	3440
1389.71	96.984	3645	3645
1390.21	96.484	3510	3510
1390.71	95.984	3725	3725
1391.21	95.484	3540	3540
1391.71	94.984	3870	3870
1392.21	94.484	3930	3930
1392.71	93.984	3575	3575
1393.21	93.484	3620	3620
1393.71	92.984	3720	3720
1394.21	92.484	3720	3720
1394.71	91.984	3845	3845
1395.21	91.484	4070	4070
1395.71	90.984	3925	3925
1396.21	90.484	3840	3840
1396.71	89.984	3830	3830
1397.21	89.484	4015	4015
1397.71	88.984	3770	3770
1398.21	88.484	3495	3495
1398.71	87.984	3465	3465
1399.21	87.484	3765	3765
1399.71	86.984	3695	3695
1400.21	86.484	3695	3695
1400.71	85.984	3630	3630
1401.21	85.484	3760	3760
1401.71	84.984	3525	3525
1402.21	84.484	3705	3705
1402.71	83.984	3700	3700
1403.21	83.484	3855	3855
1403.71	82.984	3650	3650
1404.21	82.484	3545	3545
1404.71	81.984	3600	3600
1405.21	81.484	3695	3695
1405.71	80.984	3610	3610
1406.21	80.484	3530	3530
1406.71	79.984	3685	3685
1407.21	79.484	3720	3720
1407.71	78.984	3645	3645
1408.21	78.484	3735	3735
1408.71	77.984	3650	3650
1409.21	77.484	3590	3590
1409.71	76.984	3625	3625
1410.21	76.484	3620	3620
1410.71	75.984	3560	3560
1411.21	75.484	3800	3800
1411.71	74.984	3405	3405
1412.21	74.484	3995	3995
1412.71	73.984	3725	3725
1413.21	73.484	3860	3860
1413.71	72.984	3750	3750
1414.21	72.484	3345	3345
1414.71	71.984	3645	3645
1415.21	71.484	3825	3825
1415.71	70.984	3600	3600
1416.21	70.484	3515	3515
1416.71	69.984	3770	3770
1417.21	69.484	3895	3895
1417.71	68.984	3590	3590
1418.21	68.484	3640	3640
1418.71	67.984	3670	3670
1419.21	67.484	3665	3665
1419.71	66.984	3615	3615
1420.21	66.484	3515	3515
1420.71	65.984	3895	3895
1421.21	65.484	3790	3790
1421.71	64.984	3650	3650
1422.21	64.484	3630	3630
1422.71	63.984	3500	3500
1423.21	63.484	3575	3575
1423.71	62.984	3755	3755
1424.21	62.484	3900	3900
1424.71	61.984	3530	3530
1425.21	61.484	3750	3750
1425.71	60.984	3780	3780
1426.21	60.484	3890	3890
1426.71	59.984	3810	3810
1427.21	59.484	3690	3690
1427.71	58.984	3840	3840
1428.21	58.484	3960	3960
1428.71	57.984	3760	3760
1429.21	57.484	3875	3875
1429.71	56.984	4000	4000
1430.21	56.484	4060	4060
1430.71	55.984	3915	3915
1431.21	55.484	3880	3880
1431.71	54.984	3875	3875
1432.21	54.484	3735	3735
1432.71	53.984	3935	3935
1433.21	53.484	3895	3895
1433.71	52.984	3980	3980
1434.21	52.484	4140	4140
1434.71	51.984	4045	4045
1435.21	51.484	4000	4000
1435.71	50.984	4130	4130
1436.21	50.484	4190	4190
1436.71	49.984	3915	3915
1437.21	49.484	3930	3930
1437.71	48.984	4050	4050
1438.21	48.484	3905	3905
1438.71	47.984	3940	3940
1439.21	47.484	4060	4060
1439.71	46.984	4035	4035
1440.21	46.484	3985	3985
1440.71	45.984	3945	3945
1441.21	45.484	3810	3810
1441.71	44.984	3855	3855
1442.21	44.484	3970	3970
1442.71	43.984	3905	3905
1443.21	43.484	3935	3935
1443.71	42.984	3735	3735
1444.21	42.484	3715	3715
1444.71	41.984	3750	3750
1445.21	41.484	3690	3690
1445.71	40.984	3525	3525
1446.21	40.484	3625	3625
1446.71	39.984	3565	3565
1447.21	39.484	3510	3510
1447.71	38.984	3310	3310
1448.21	38.484	3375	3375
1448.71	37.984	3455	3455
1449.21	37.484	3405	3405
1449.71	36.984	3485	3485
1450.21	36.484	3295	3295
1450.71	35.984	3310	3310
1451.21	35.484	3330	3330
1451.71	34.984	3320	3320
1452.21	34.484	3120	3120
1452.71	33.984	3210	3210
1453.21	33.484	3160	3160
1453.71	32.984	3355	3355
1454.21	32.484	3215	3215
1454.71	31.984	3580	3580
1455.21	31.484	3460	3460
1455.71	30.984	3785	3785
1456.21	30.484	3965	3965
1456.71	29.984	4235	4235
1457.21	29.484	4395	4395
1457.71	28.984	4680	4680
1458.21	28.484	4990	4990
1458.71	27.984	5340	5340
1459.21	27.484	5715	5715
1459.71	26.984	6070	6070
1460.21	26.484	6305	6305
1460.71	25.984	6280	6280
1461.21	25.484	6635	6635
1461.71	24.984	5935	5935
1462.21	24.484	5470	5470
1462.71	23.984	5025	5025
1463.21	23.484	4450	4450
1463.71	22.984	3980	3980
1464.21	22.484	3720	3720
1464.71	21.984	3600	3600
1465.21	21.484	3645	3645
1465.71	20.984	3805	3805
1466.21	20.484	3855	3855
1466.71	19.984	4320	4320
1467.21	19.484	4330	4330
1467.71	18.984	4670	4670
1468.21	18.484	4605	4605
1468.71	17.984	4505	4505
1469.21	17.484	4590	4590
1469.71	16.984	4390	4390
1470.21	16.484	4310	4310
1470.71	15.984	4345	4345
1471.21	15.484	4205	4205
1471.71	14.984	4050	4050
1472.21	14.484	4005	4005
1472.71	13.984	3855	3855
1473.21	13.484	3695	3695
1473.71	12.984	3650	3650
1474.21	12.484	3590	3590
1474.71	11.984	3520	3520
1475.21	11.484	3285	3285
1475.71	10.984	3225	3225
1476.21	10.484	3195	3195
1476.71	9.984	3055	3055
1477.21	9.484	3030	3030
1477.71	8.984	2750	2750
1478.21	8.484	2605	2605
1478.71	7.984	2485	2485
1479.21	7.484	2260	2260
1479.71	6.984	2260	2260
1480.21	6.484	2210	2210
1480.71	5.984	2080	2080
1481.21	5.484	1810	1810
1481.71	4.984	1760	1760
1482.21	4.484	1535	1535
1482.71	3.984	1215	1215
1483.21	3.484	985	985
1483.71	2.984	780	780
1484.21	2.484	590	590
1484.71	1.984	410	410
1485.21	1.484	290	290
1485.71	0.984	220	220
1486.21	0.484	165	165
1486.71	-0.016	165	165