Created as New Dataset;Sample 1471 By Administrator Date tirsdag, november 28 2017
cm-1;%T
4000,00;98,89
3999,00;98,88
3998,00;98,88
3997,00;98,87
3996,00;98,87
3995,00;98,87
3994,00;98,87
3993,00;98,86
3992,00;98,86
3991,00;98,87
3990,00;98,87
3989,00;98,87
3988,00;98,87
3987,00;98,87
3986,00;98,87
3985,00;98,87
3984,00;98,87
3983,00;98,86
3982,00;98,86
3981,00;98,86
3980,00;98,86
3979,00;98,85
3978,00;98,85
3977,00;98,85
3976,00;98,84
3975,00;98,84
3974,00;98,84
3973,00;98,84
3972,00;98,84
3971,00;98,84
3970,00;98,84
3969,00;98,84
3968,00;98,84
3967,00;98,84
3966,00;98,83
3965,00;98,82
3964,00;98,81
3963,00;98,81
3962,00;98,81
3961,00;98,81
3960,00;98,81
3959,00;98,81
3958,00;98,82
3957,00;98,82
3956,00;98,82
3955,00;98,82
3954,00;98,81
3953,00;98,79
3952,00;98,77
3951,00;98,75
3950,00;98,74
3949,00;98,74
3948,00;98,75
3947,00;98,75
3946,00;98,74
3945,00;98,73
3944,00;98,73
3943,00;98,75
3942,00;98,76
3941,00;98,76
3940,00;98,76
3939,00;98,77
3938,00;98,79
3937,00;98,79
3936,00;98,77
3935,00;98,72
3934,00;98,68
3933,00;98,66
3932,00;98,66
3931,00;98,68
3930,00;98,69
3929,00;98,70
3928,00;98,69
3927,00;98,69
3926,00;98,69
3925,00;98,70
3924,00;98,70
3923,00;98,68
3922,00;98,65
3921,00;98,63
3920,00;98,62
3919,00;98,61
3918,00;98,62
3917,00;98,65
3916,00;98,70
3915,00;98,74
3914,00;98,77
3913,00;98,81
3912,00;98,84
3911,00;98,85
3910,00;98,83
3909,00;98,76
3908,00;98,67
3907,00;98,55
3906,00;98,43
3905,00;98,33
3904,00;98,26
3903,00;98,21
3902,00;98,20
3901,00;98,25
3900,00;98,36
3899,00;98,50
3898,00;98,61
3897,00;98,65
3896,00;98,67
3895,00;98,66
3894,00;98,62
3893,00;98,58
3892,00;98,56
3891,00;98,57
3890,00;98,54
3889,00;98,45
3888,00;98,39
3887,00;98,39
3886,00;98,45
3885,00;98,48
3884,00;98,43
3883,00;98,34
3882,00;98,34
3881,00;98,42
3880,00;98,51
3879,00;98,53
3878,00;98,47
3877,00;98,41
3876,00;98,41
3875,00;98,42
3874,00;98,37
3873,00;98,24
3872,00;98,10
3871,00;98,06
3870,00;98,15
3869,00;98,24
3868,00;98,22
3867,00;98,19
3866,00;98,23
3865,00;98,33
3864,00;98,41
3863,00;98,44
3862,00;98,46
3861,00;98,50
3860,00;98,54
3859,00;98,52
3858,00;98,40
3857,00;98,17
3856,00;97,87
3855,00;97,62
3854,00;97,58
3853,00;97,76
3852,00;97,95
3851,00;98,07
3850,00;98,25
3849,00;98,51
3848,00;98,69
3847,00;98,74
3846,00;98,69
3845,00;98,61
3844,00;98,51
3843,00;98,41
3842,00;98,28
3841,00;98,14
3840,00;98,05
3839,00;98,02
3838,00;98,06
3837,00;98,13
3836,00;98,18
3835,00;98,24
3834,00;98,31
3833,00;98,41
3832,00;98,50
3831,00;98,55
3830,00;98,55
3829,00;98,54
3828,00;98,55
3827,00;98,57
3826,00;98,55
3825,00;98,44
3824,00;98,26
3823,00;98,12
3822,00;98,09
3821,00;98,13
3820,00;98,13
3819,00;98,04
3818,00;98,01
3817,00;98,14
3816,00;98,35
3815,00;98,49
3814,00;98,52
3813,00;98,54
3812,00;98,60
3811,00;98,64
3810,00;98,57
3809,00;98,44
3808,00;98,36
3807,00;98,34
3806,00;98,31
3805,00;98,20
3804,00;98,07
3803,00;98,05
3802,00;98,13
3801,00;98,24
3800,00;98,25
3799,00;98,21
3798,00;98,25
3797,00;98,40
3796,00;98,53
3795,00;98,59
3794,00;98,60
3793,00;98,61
3792,00;98,66
3791,00;98,69
3790,00;98,69
3789,00;98,66
3788,00;98,62
3787,00;98,58
3786,00;98,56
3785,00;98,55
3784,00;98,53
3783,00;98,48
3782,00;98,43
3781,00;98,41
3780,00;98,42
3779,00;98,46
3778,00;98,48
3777,00;98,49
3776,00;98,51
3775,00;98,54
3774,00;98,52
3773,00;98,44
3772,00;98,34
3771,00;98,28
3770,00;98,25
3769,00;98,22
3768,00;98,18
3767,00;98,18
3766,00;98,24
3765,00;98,31
3764,00;98,33
3763,00;98,29
3762,00;98,23
3761,00;98,21
3760,00;98,20
3759,00;98,18
3758,00;98,16
3757,00;98,13
3756,00;98,07
3755,00;97,96
3754,00;97,80
3753,00;97,64
3752,00;97,51
3751,00;97,47
3750,00;97,52
3749,00;97,56
3748,00;97,52
3747,00;97,45
3746,00;97,44
3745,00;97,55
3744,00;97,74
3743,00;97,83
3742,00;97,81
3741,00;97,86
3740,00;97,95
3739,00;97,95
3738,00;97,82
3737,00;97,67
3736,00;97,58
3735,00;97,57
3734,00;97,60
3733,00;97,70
3732,00;97,86
3731,00;98,01
3730,00;98,08
3729,00;98,10
3728,00;98,11
3727,00;98,12
3726,00;98,10
3725,00;98,05
3724,00;98,01
3723,00;98,01
3722,00;98,05
3721,00;98,08
3720,00;98,11
3719,00;98,13
3718,00;98,15
3717,00;98,13
3716,00;98,04
3715,00;97,90
3714,00;97,74
3713,00;97,62
3712,00;97,56
3711,00;97,56
3710,00;97,61
3709,00;97,68
3708,00;97,77
3707,00;97,86
3706,00;97,91
3705,00;97,89
3704,00;97,83
3703,00;97,78
3702,00;97,74
3701,00;97,73
3700,00;97,70
3699,00;97,68
3698,00;97,69
3697,00;97,70
3696,00;97,67
3695,00;97,58
3694,00;97,42
3693,00;97,24
3692,00;97,05
3691,00;96,86
3690,00;96,74
3689,00;96,74
3688,00;96,81
3687,00;96,87
3686,00;96,92
3685,00;96,98
3684,00;97,02
3683,00;97,00
3682,00;96,90
3681,00;96,75
3680,00;96,55
3679,00;96,29
3678,00;95,99
3677,00;95,74
3676,00;95,64
3675,00;95,64
3674,00;95,57
3673,00;95,41
3672,00;95,33
3671,00;95,36
3670,00;95,41
3669,00;95,41
3668,00;95,35
3667,00;95,30
3666,00;95,30
3665,00;95,29
3664,00;95,23
3663,00;95,12
3662,00;94,98
3661,00;94,82
3660,00;94,62
3659,00;94,39
3658,00;94,19
3657,00;94,04
3656,00;93,94
3655,00;93,79
3654,00;93,57
3653,00;93,31
3652,00;93,04
3651,00;92,78
3650,00;92,57
3649,00;92,46
3648,00;92,44
3647,00;92,48
3646,00;92,52
3645,00;92,54
3644,00;92,54
3643,00;92,51
3642,00;92,44
3641,00;92,32
3640,00;92,18
3639,00;92,05
3638,00;91,92
3637,00;91,78
3636,00;91,64
3635,00;91,51
3634,00;91,37
3633,00;91,18
3632,00;90,91
3631,00;90,64
3630,00;90,48
3629,00;90,48
3628,00;90,55
3627,00;90,58
3626,00;90,58
3625,00;90,62
3624,00;90,63
3623,00;90,53
3622,00;90,35
3621,00;90,16
3620,00;90,03
3619,00;89,98
3618,00;89,95
3617,00;89,90
3616,00;89,85
3615,00;89,82
3614,00;89,79
3613,00;89,74
3612,00;89,66
3611,00;89,58
3610,00;89,53
3609,00;89,55
3608,00;89,60
3607,00;89,65
3606,00;89,67
3605,00;89,67
3604,00;89,66
3603,00;89,63
3602,00;89,60
3601,00;89,56
3600,00;89,53
3599,00;89,49
3598,00;89,46
3597,00;89,43
3596,00;89,42
3595,00;89,44
3594,00;89,47
3593,00;89,47
3592,00;89,44
3591,00;89,37
3590,00;89,28
3589,00;89,23
3588,00;89,25
3587,00;89,32
3586,00;89,40
3585,00;89,46
3584,00;89,53
3583,00;89,59
3582,00;89,63
3581,00;89,65
3580,00;89,66
3579,00;89,66
3578,00;89,67
3577,00;89,67
3576,00;89,69
3575,00;89,71
3574,00;89,73
3573,00;89,73
3572,00;89,69
3571,00;89,62
3570,00;89,53
3569,00;89,45
3568,00;89,44
3567,00;89,50
3566,00;89,59
3565,00;89,68
3564,00;89,76
3563,00;89,83
3562,00;89,89
3561,00;89,93
3560,00;89,97
3559,00;89,99
3558,00;90,02
3557,00;90,03
3556,00;90,03
3555,00;90,02
3554,00;90,02
3553,00;90,02
3552,00;90,04
3551,00;90,05
3550,00;90,05
3549,00;90,04
3548,00;90,04
3547,00;90,05
3546,00;90,08
3545,00;90,12
3544,00;90,17
3543,00;90,22
3542,00;90,26
3541,00;90,29
3540,00;90,30
3539,00;90,30
3538,00;90,29
3537,00;90,29
3536,00;90,30
3535,00;90,31
3534,00;90,32
3533,00;90,32
3532,00;90,30
3531,00;90,29
3530,00;90,27
3529,00;90,26
3528,00;90,26
3527,00;90,27
3526,00;90,27
3525,00;90,28
3524,00;90,30
3523,00;90,32
3522,00;90,34
3521,00;90,35
3520,00;90,36
3519,00;90,37
3518,00;90,38
3517,00;90,38
3516,00;90,37
3515,00;90,36
3514,00;90,34
3513,00;90,32
3512,00;90,29
3511,00;90,28
3510,00;90,28
3509,00;90,28
3508,00;90,28
3507,00;90,27
3506,00;90,25
3505,00;90,22
3504,00;90,21
3503,00;90,20
3502,00;90,20
3501,00;90,20
3500,00;90,20
3499,00;90,20
3498,00;90,19
3497,00;90,17
3496,00;90,16
3495,00;90,15
3494,00;90,14
3493,00;90,13
3492,00;90,11
3491,00;90,09
3490,00;90,07
3489,00;90,05
3488,00;90,03
3487,00;90,02
3486,00;90,00
3485,00;89,98
3484,00;89,96
3483,00;89,94
3482,00;89,92
3481,00;89,91
3480,00;89,90
3479,00;89,89
3478,00;89,88
3477,00;89,87
3476,00;89,85
3475,00;89,83
3474,00;89,81
3473,00;89,79
3472,00;89,77
3471,00;89,75
3470,00;89,73
3469,00;89,70
3468,00;89,68
3467,00;89,66
3466,00;89,64
3465,00;89,62
3464,00;89,60
3463,00;89,58
3462,00;89,57
3461,00;89,56
3460,00;89,54
3459,00;89,52
3458,00;89,51
3457,00;89,50
3456,00;89,49
3455,00;89,47
3454,00;89,46
3453,00;89,44
3452,00;89,41
3451,00;89,38
3450,00;89,34
3449,00;89,31
3448,00;89,28
3447,00;89,26
3446,00;89,25
3445,00;89,24
3444,00;89,23
3443,00;89,23
3442,00;89,22
3441,00;89,21
3440,00;89,20
3439,00;89,18
3438,00;89,16
3437,00;89,14
3436,00;89,12
3435,00;89,10
3434,00;89,08
3433,00;89,06
3432,00;89,05
3431,00;89,03
3430,00;89,01
3429,00;89,00
3428,00;88,99
3427,00;88,99
3426,00;88,98
3425,00;88,96
3424,00;88,94
3423,00;88,92
3422,00;88,90
3421,00;88,89
3420,00;88,88
3419,00;88,88
3418,00;88,88
3417,00;88,88
3416,00;88,87
3415,00;88,85
3414,00;88,84
3413,00;88,82
3412,00;88,81
3411,00;88,80
3410,00;88,79
3409,00;88,79
3408,00;88,78
3407,00;88,78
3406,00;88,77
3405,00;88,77
3404,00;88,76
3403,00;88,75
3402,00;88,74
3401,00;88,74
3400,00;88,73
3399,00;88,73
3398,00;88,73
3397,00;88,73
3396,00;88,73
3395,00;88,72
3394,00;88,71
3393,00;88,70
3392,00;88,70
3391,00;88,70
3390,00;88,70
3389,00;88,70
3388,00;88,70
3387,00;88,69
3386,00;88,68
3385,00;88,67
3384,00;88,65
3383,00;88,63
3382,00;88,61
3381,00;88,60
3380,00;88,58
3379,00;88,57
3378,00;88,55
3377,00;88,53
3376,00;88,52
3375,00;88,50
3374,00;88,49
3373,00;88,48
3372,00;88,47
3371,00;88,46
3370,00;88,45
3369,00;88,44
3368,00;88,44
3367,00;88,44
3366,00;88,46
3365,00;88,48
3364,00;88,50
3363,00;88,52
3362,00;88,54
3361,00;88,56
3360,00;88,58
3359,00;88,61
3358,00;88,63
3357,00;88,65
3356,00;88,67
3355,00;88,70
3354,00;88,72
3353,00;88,74
3352,00;88,76
3351,00;88,78
3350,00;88,80
3349,00;88,82
3348,00;88,85
3347,00;88,86
3346,00;88,88
3345,00;88,88
3344,00;88,88
3343,00;88,88
3342,00;88,88
3341,00;88,89
3340,00;88,88
3339,00;88,88
3338,00;88,88
3337,00;88,88
3336,00;88,88
3335,00;88,89
3334,00;88,89
3333,00;88,88
3332,00;88,87
3331,00;88,86
3330,00;88,85
3329,00;88,84
3328,00;88,82
3327,00;88,80
3326,00;88,77
3325,00;88,75
3324,00;88,72
3323,00;88,70
3322,00;88,67
3321,00;88,64
3320,00;88,60
3319,00;88,55
3318,00;88,50
3317,00;88,44
3316,00;88,38
3315,00;88,32
3314,00;88,24
3313,00;88,16
3312,00;88,07
3311,00;87,97
3310,00;87,86
3309,00;87,75
3308,00;87,63
3307,00;87,49
3306,00;87,36
3305,00;87,21
3304,00;87,06
3303,00;86,90
3302,00;86,73
3301,00;86,54
3300,00;86,34
3299,00;86,12
3298,00;85,88
3297,00;85,64
3296,00;85,37
3295,00;85,10
3294,00;84,80
3293,00;84,50
3292,00;84,18
3291,00;83,87
3290,00;83,55
3289,00;83,22
3288,00;82,88
3287,00;82,54
3286,00;82,19
3285,00;81,85
3284,00;81,50
3283,00;81,17
3282,00;80,85
3281,00;80,53
3280,00;80,23
3279,00;79,95
3278,00;79,68
3277,00;79,43
3276,00;79,20
3275,00;79,00
3274,00;78,83
3273,00;78,68
3272,00;78,56
3271,00;78,47
3270,00;78,40
3269,00;78,37
3268,00;78,37
3267,00;78,39
3266,00;78,43
3265,00;78,49
3264,00;78,56
3263,00;78,66
3262,00;78,76
3261,00;78,88
3260,00;79,01
3259,00;79,15
3258,00;79,29
3257,00;79,44
3256,00;79,59
3255,00;79,73
3254,00;79,88
3253,00;80,03
3252,00;80,17
3251,00;80,30
3250,00;80,43
3249,00;80,56
3248,00;80,67
3247,00;80,79
3246,00;80,91
3245,00;81,03
3244,00;81,17
3243,00;81,30
3242,00;81,44
3241,00;81,58
3240,00;81,72
3239,00;81,87
3238,00;82,02
3237,00;82,18
3236,00;82,34
3235,00;82,50
3234,00;82,66
3233,00;82,82
3232,00;82,98
3231,00;83,14
3230,00;83,28
3229,00;83,42
3228,00;83,54
3227,00;83,65
3226,00;83,74
3225,00;83,82
3224,00;83,87
3223,00;83,90
3222,00;83,92
3221,00;83,92
3220,00;83,90
3219,00;83,87
3218,00;83,81
3217,00;83,74
3216,00;83,64
3215,00;83,52
3214,00;83,40
3213,00;83,27
3212,00;83,14
3211,00;83,02
3210,00;82,92
3209,00;82,82
3208,00;82,75
3207,00;82,71
3206,00;82,70
3205,00;82,73
3204,00;82,78
3203,00;82,87
3202,00;82,99
3201,00;83,13
3200,00;83,30
3199,00;83,49
3198,00;83,70
3197,00;83,92
3196,00;84,15
3195,00;84,38
3194,00;84,61
3193,00;84,83
3192,00;85,05
3191,00;85,25
3190,00;85,45
3189,00;85,63
3188,00;85,80
3187,00;85,95
3186,00;86,09
3185,00;86,21
3184,00;86,32
3183,00;86,41
3182,00;86,49
3181,00;86,56
3180,00;86,62
3179,00;86,68
3178,00;86,74
3177,00;86,78
3176,00;86,81
3175,00;86,84
3174,00;86,86
3173,00;86,88
3172,00;86,90
3171,00;86,91
3170,00;86,92
3169,00;86,92
3168,00;86,93
3167,00;86,94
3166,00;86,95
3165,00;86,97
3164,00;87,01
3163,00;87,05
3162,00;87,11
3161,00;87,19
3160,00;87,29
3159,00;87,42
3158,00;87,55
3157,00;87,70
3156,00;87,86
3155,00;88,02
3154,00;88,18
3153,00;88,34
3152,00;88,49
3151,00;88,65
3150,00;88,80
3149,00;88,94
3148,00;89,07
3147,00;89,19
3146,00;89,31
3145,00;89,41
3144,00;89,50
3143,00;89,59
3142,00;89,67
3141,00;89,74
3140,00;89,81
3139,00;89,87
3138,00;89,93
3137,00;89,99
3136,00;90,04
3135,00;90,08
3134,00;90,12
3133,00;90,16
3132,00;90,19
3131,00;90,21
3130,00;90,22
3129,00;90,23
3128,00;90,21
3127,00;90,19
3126,00;90,15
3125,00;90,09
3124,00;90,01
3123,00;89,92
3122,00;89,80
3121,00;89,65
3120,00;89,48
3119,00;89,29
3118,00;89,07
3117,00;88,83
3116,00;88,59
3115,00;88,34
3114,00;88,11
3113,00;87,91
3112,00;87,76
3111,00;87,68
3110,00;87,68
3109,00;87,78
3108,00;87,96
3107,00;88,23
3106,00;88,56
3105,00;88,91
3104,00;89,26
3103,00;89,59
3102,00;89,89
3101,00;90,15
3100,00;90,39
3099,00;90,60
3098,00;90,78
3097,00;90,94
3096,00;91,08
3095,00;91,21
3094,00;91,32
3093,00;91,42
3092,00;91,50
3091,00;91,58
3090,00;91,64
3089,00;91,71
3088,00;91,77
3087,00;91,82
3086,00;91,87
3085,00;91,91
3084,00;91,93
3083,00;91,95
3082,00;91,95
3081,00;91,96
3080,00;91,97
3079,00;91,99
3078,00;92,03
3077,00;92,08
3076,00;92,14
3075,00;92,21
3074,00;92,27
3073,00;92,33
3072,00;92,38
3071,00;92,42
3070,00;92,45
3069,00;92,49
3068,00;92,52
3067,00;92,56
3066,00;92,60
3065,00;92,65
3064,00;92,70
3063,00;92,74
3062,00;92,78
3061,00;92,81
3060,00;92,84
3059,00;92,86
3058,00;92,87
3057,00;92,89
3056,00;92,90
3055,00;92,91
3054,00;92,92
3053,00;92,93
3052,00;92,93
3051,00;92,94
3050,00;92,94
3049,00;92,94
3048,00;92,95
3047,00;92,95
3046,00;92,94
3045,00;92,92
3044,00;92,89
3043,00;92,86
3042,00;92,83
3041,00;92,83
3040,00;92,84
3039,00;92,87
3038,00;92,92
3037,00;92,98
3036,00;93,04
3035,00;93,10
3034,00;93,15
3033,00;93,20
3032,00;93,24
3031,00;93,28
3030,00;93,31
3029,00;93,33
3028,00;93,35
3027,00;93,37
3026,00;93,38
3025,00;93,39
3024,00;93,39
3023,00;93,39
3022,00;93,39
3021,00;93,40
3020,00;93,40
3019,00;93,42
3018,00;93,43
3017,00;93,44
3016,00;93,45
3015,00;93,46
3014,00;93,47
3013,00;93,47
3012,00;93,47
3011,00;93,45
3010,00;93,43
3009,00;93,40
3008,00;93,37
3007,00;93,34
3006,00;93,32
3005,00;93,30
3004,00;93,29
3003,00;93,28
3002,00;93,28
3001,00;93,28
3000,00;93,29
2999,00;93,29
2998,00;93,30
2997,00;93,30
2996,00;93,30
2995,00;93,30
2994,00;93,31
2993,00;93,31
2992,00;93,31
2991,00;93,30
2990,00;93,30
2989,00;93,30
2988,00;93,30
2987,00;93,31
2986,00;93,32
2985,00;93,35
2984,00;93,37
2983,00;93,41
2982,00;93,44
2981,00;93,47
2980,00;93,50
2979,00;93,53
2978,00;93,57
2977,00;93,60
2976,00;93,64
2975,00;93,68
2974,00;93,71
2973,00;93,75
2972,00;93,79
2971,00;93,84
2970,00;93,88
2969,00;93,93
2968,00;93,97
2967,00;94,02
2966,00;94,05
2965,00;94,08
2964,00;94,11
2963,00;94,13
2962,00;94,15
2961,00;94,16
2960,00;94,16
2959,00;94,17
2958,00;94,17
2957,00;94,17
2956,00;94,16
2955,00;94,16
2954,00;94,16
2953,00;94,17
2952,00;94,19
2951,00;94,21
2950,00;94,24
2949,00;94,27
2948,00;94,30
2947,00;94,33
2946,00;94,37
2945,00;94,40
2944,00;94,42
2943,00;94,45
2942,00;94,48
2941,00;94,51
2940,00;94,55
2939,00;94,58
2938,00;94,61
2937,00;94,64
2936,00;94,67
2935,00;94,70
2934,00;94,73
2933,00;94,76
2932,00;94,79
2931,00;94,82
2930,00;94,85
2929,00;94,87
2928,00;94,90
2927,00;94,93
2926,00;94,95
2925,00;94,98
2924,00;95,01
2923,00;95,03
2922,00;95,05
2921,00;95,06
2920,00;95,07
2919,00;95,06
2918,00;95,05
2917,00;95,03
2916,00;95,01
2915,00;94,99
2914,00;94,98
2913,00;94,97
2912,00;94,96
2911,00;94,95
2910,00;94,94
2909,00;94,93
2908,00;94,92
2907,00;94,92
2906,00;94,91
2905,00;94,91
2904,00;94,92
2903,00;94,92
2902,00;94,93
2901,00;94,93
2900,00;94,94
2899,00;94,94
2898,00;94,95
2897,00;94,96
2896,00;94,96
2895,00;94,97
2894,00;94,97
2893,00;94,98
2892,00;94,98
2891,00;94,99
2890,00;95,00
2889,00;95,01
2888,00;95,02
2887,00;95,02
2886,00;95,02
2885,00;95,03
2884,00;95,04
2883,00;95,04
2882,00;95,04
2881,00;95,05
2880,00;95,05
2879,00;95,06
2878,00;95,06
2877,00;95,07
2876,00;95,08
2875,00;95,09
2874,00;95,10
2873,00;95,11
2872,00;95,12
2871,00;95,13
2870,00;95,13
2869,00;95,14
2868,00;95,14
2867,00;95,15
2866,00;95,16
2865,00;95,18
2864,00;95,20
2863,00;95,22
2862,00;95,25
2861,00;95,27
2860,00;95,30
2859,00;95,33
2858,00;95,36
2857,00;95,38
2856,00;95,41
2855,00;95,43
2854,00;95,45
2853,00;95,45
2852,00;95,46
2851,00;95,46
2850,00;95,45
2849,00;95,44
2848,00;95,42
2847,00;95,40
2846,00;95,38
2845,00;95,37
2844,00;95,35
2843,00;95,34
2842,00;95,33
2841,00;95,31
2840,00;95,30
2839,00;95,30
2838,00;95,29
2837,00;95,29
2836,00;95,29
2835,00;95,28
2834,00;95,28
2833,00;95,28
2832,00;95,28
2831,00;95,28
2830,00;95,28
2829,00;95,28
2828,00;95,28
2827,00;95,28
2826,00;95,28
2825,00;95,28
2824,00;95,29
2823,00;95,30
2822,00;95,31
2821,00;95,33
2820,00;95,34
2819,00;95,35
2818,00;95,36
2817,00;95,37
2816,00;95,37
2815,00;95,38
2814,00;95,38
2813,00;95,38
2812,00;95,38
2811,00;95,38
2810,00;95,38
2809,00;95,38
2808,00;95,37
2807,00;95,37
2806,00;95,36
2805,00;95,35
2804,00;95,35
2803,00;95,34
2802,00;95,35
2801,00;95,35
2800,00;95,35
2799,00;95,36
2798,00;95,37
2797,00;95,38
2796,00;95,39
2795,00;95,40
2794,00;95,40
2793,00;95,41
2792,00;95,41
2791,00;95,40
2790,00;95,39
2789,00;95,38
2788,00;95,37
2787,00;95,36
2786,00;95,36
2785,00;95,36
2784,00;95,37
2783,00;95,37
2782,00;95,38
2781,00;95,38
2780,00;95,38
2779,00;95,39
2778,00;95,39
2777,00;95,39
2776,00;95,40
2775,00;95,40
2774,00;95,41
2773,00;95,41
2772,00;95,41
2771,00;95,41
2770,00;95,41
2769,00;95,41
2768,00;95,41
2767,00;95,42
2766,00;95,42
2765,00;95,42
2764,00;95,43
2763,00;95,43
2762,00;95,42
2761,00;95,42
2760,00;95,42
2759,00;95,42
2758,00;95,43
2757,00;95,43
2756,00;95,44
2755,00;95,44
2754,00;95,45
2753,00;95,45
2752,00;95,46
2751,00;95,46
2750,00;95,47
2749,00;95,48
2748,00;95,48
2747,00;95,49
2746,00;95,50
2745,00;95,50
2744,00;95,51
2743,00;95,51
2742,00;95,52
2741,00;95,52
2740,00;95,52
2739,00;95,52
2738,00;95,52
2737,00;95,52
2736,00;95,53
2735,00;95,53
2734,00;95,53
2733,00;95,54
2732,00;95,54
2731,00;95,55
2730,00;95,56
2729,00;95,57
2728,00;95,58
2727,00;95,58
2726,00;95,59
2725,00;95,60
2724,00;95,61
2723,00;95,62
2722,00;95,62
2721,00;95,63
2720,00;95,63
2719,00;95,64
2718,00;95,65
2717,00;95,65
2716,00;95,66
2715,00;95,67
2714,00;95,67
2713,00;95,68
2712,00;95,68
2711,00;95,69
2710,00;95,69
2709,00;95,70
2708,00;95,70
2707,00;95,70
2706,00;95,70
2705,00;95,71
2704,00;95,71
2703,00;95,71
2702,00;95,72
2701,00;95,72
2700,00;95,73
2699,00;95,73
2698,00;95,74
2697,00;95,74
2696,00;95,74
2695,00;95,74
2694,00;95,74
2693,00;95,74
2692,00;95,73
2691,00;95,73
2690,00;95,74
2689,00;95,74
2688,00;95,75
2687,00;95,75
2686,00;95,75
2685,00;95,75
2684,00;95,74
2683,00;95,73
2682,00;95,73
2681,00;95,72
2680,00;95,71
2679,00;95,70
2678,00;95,68
2677,00;95,67
2676,00;95,66
2675,00;95,66
2674,00;95,64
2673,00;95,63
2672,00;95,61
2671,00;95,59
2670,00;95,57
2669,00;95,56
2668,00;95,54
2667,00;95,53
2666,00;95,51
2665,00;95,50
2664,00;95,48
2663,00;95,46
2662,00;95,44
2661,00;95,43
2660,00;95,42
2659,00;95,41
2658,00;95,41
2657,00;95,40
2656,00;95,40
2655,00;95,40
2654,00;95,40
2653,00;95,41
2652,00;95,40
2651,00;95,40
2650,00;95,40
2649,00;95,40
2648,00;95,40
2647,00;95,41
2646,00;95,42
2645,00;95,42
2644,00;95,42
2643,00;95,42
2642,00;95,41
2641,00;95,41
2640,00;95,40
2639,00;95,40
2638,00;95,41
2637,00;95,42
2636,00;95,43
2635,00;95,45
2634,00;95,47
2633,00;95,50
2632,00;95,52
2631,00;95,55
2630,00;95,57
2629,00;95,59
2628,00;95,60
2627,00;95,62
2626,00;95,63
2625,00;95,65
2624,00;95,66
2623,00;95,68
2622,00;95,69
2621,00;95,71
2620,00;95,73
2619,00;95,75
2618,00;95,76
2617,00;95,77
2616,00;95,77
2615,00;95,78
2614,00;95,79
2613,00;95,79
2612,00;95,80
2611,00;95,80
2610,00;95,80
2609,00;95,79
2608,00;95,78
2607,00;95,78
2606,00;95,79
2605,00;95,79
2604,00;95,80
2603,00;95,80
2602,00;95,80
2601,00;95,81
2600,00;95,82
2599,00;95,83
2598,00;95,84
2597,00;95,85
2596,00;95,86
2595,00;95,87
2594,00;95,87
2593,00;95,88
2592,00;95,88
2591,00;95,88
2590,00;95,88
2589,00;95,88
2588,00;95,88
2587,00;95,89
2586,00;95,90
2585,00;95,91
2584,00;95,93
2583,00;95,93
2582,00;95,94
2581,00;95,95
2580,00;95,95
2579,00;95,96
2578,00;95,97
2577,00;95,98
2576,00;96,00
2575,00;96,01
2574,00;96,01
2573,00;96,02
2572,00;96,02
2571,00;96,03
2570,00;96,03
2569,00;96,03
2568,00;96,03
2567,00;96,03
2566,00;96,03
2565,00;96,03
2564,00;96,04
2563,00;96,04
2562,00;96,04
2561,00;96,04
2560,00;96,03
2559,00;96,03
2558,00;96,02
2557,00;96,02
2556,00;96,01
2555,00;96,01
2554,00;96,01
2553,00;96,02
2552,00;96,02
2551,00;96,03
2550,00;96,04
2549,00;96,05
2548,00;96,07
2547,00;96,08
2546,00;96,08
2545,00;96,08
2544,00;96,07
2543,00;96,07
2542,00;96,07
2541,00;96,07
2540,00;96,08
2539,00;96,08
2538,00;96,08
2537,00;96,09
2536,00;96,09
2535,00;96,11
2534,00;96,13
2533,00;96,15
2532,00;96,16
2531,00;96,16
2530,00;96,16
2529,00;96,17
2528,00;96,18
2527,00;96,20
2526,00;96,21
2525,00;96,22
2524,00;96,23
2523,00;96,24
2522,00;96,25
2521,00;96,26
2520,00;96,26
2519,00;96,26
2518,00;96,26
2517,00;96,26
2516,00;96,26
2515,00;96,27
2514,00;96,28
2513,00;96,28
2512,00;96,29
2511,00;96,29
2510,00;96,29
2509,00;96,30
2508,00;96,31
2507,00;96,32
2506,00;96,32
2505,00;96,31
2504,00;96,30
2503,00;96,29
2502,00;96,28
2501,00;96,29
2500,00;96,28
2499,00;96,28
2498,00;96,27
2497,00;96,27
2496,00;96,27
2495,00;96,26
2494,00;96,26
2493,00;96,26
2492,00;96,27
2491,00;96,28
2490,00;96,30
2489,00;96,32
2488,00;96,33
2487,00;96,34
2486,00;96,35
2485,00;96,35
2484,00;96,35
2483,00;96,36
2482,00;96,36
2481,00;96,35
2480,00;96,35
2479,00;96,34
2478,00;96,34
2477,00;96,34
2476,00;96,34
2475,00;96,35
2474,00;96,35
2473,00;96,36
2472,00;96,36
2471,00;96,37
2470,00;96,37
2469,00;96,36
2468,00;96,34
2467,00;96,33
2466,00;96,31
2465,00;96,30
2464,00;96,29
2463,00;96,28
2462,00;96,27
2461,00;96,27
2460,00;96,27
2459,00;96,26
2458,00;96,25
2457,00;96,24
2456,00;96,22
2455,00;96,20
2454,00;96,19
2453,00;96,18
2452,00;96,18
2451,00;96,18
2450,00;96,18
2449,00;96,18
2448,00;96,18
2447,00;96,17
2446,00;96,17
2445,00;96,17
2444,00;96,16
2443,00;96,16
2442,00;96,16
2441,00;96,16
2440,00;96,16
2439,00;96,16
2438,00;96,16
2437,00;96,17
2436,00;96,17
2435,00;96,18
2434,00;96,19
2433,00;96,19
2432,00;96,20
2431,00;96,21
2430,00;96,22
2429,00;96,23
2428,00;96,24
2427,00;96,25
2426,00;96,26
2425,00;96,27
2424,00;96,27
2423,00;96,28
2422,00;96,30
2421,00;96,30
2420,00;96,31
2419,00;96,30
2418,00;96,30
2417,00;96,30
2416,00;96,30
2415,00;96,30
2414,00;96,30
2413,00;96,30
2412,00;96,29
2411,00;96,27
2410,00;96,26
2409,00;96,25
2408,00;96,26
2407,00;96,28
2406,00;96,31
2405,00;96,33
2404,00;96,34
2403,00;96,34
2402,00;96,34
2401,00;96,35
2400,00;96,35
2399,00;96,35
2398,00;96,36
2397,00;96,36
2396,00;96,37
2395,00;96,37
2394,00;96,37
2393,00;96,37
2392,00;96,37
2391,00;96,37
2390,00;96,37
2389,00;96,37
2388,00;96,37
2387,00;96,36
2386,00;96,35
2385,00;96,34
2384,00;96,31
2383,00;96,31
2382,00;96,26
2381,00;96,29
2380,00;96,14
2379,00;96,56
2378,00;96,92
2377,00;96,86
2376,00;96,94
2375,00;96,94
2374,00;96,97
2373,00;96,98
2372,00;96,99
2371,00;97,01
2370,00;97,03
2369,00;97,05
2368,00;97,06
2367,00;97,07
2366,00;97,08
2365,00;97,09
2364,00;97,11
2363,00;97,13
2362,00;97,14
2361,00;97,15
2360,00;97,19
2359,00;97,25
2358,00;97,33
2357,00;97,38
2356,00;97,38
2355,00;97,36
2354,00;97,32
2353,00;97,25
2352,00;97,17
2351,00;97,14
2350,00;97,15
2349,00;97,15
2348,00;97,06
2347,00;96,87
2346,00;96,67
2345,00;96,59
2344,00;96,64
2343,00;96,78
2342,00;96,91
2341,00;96,98
2340,00;97,00
2339,00;96,99
2338,00;96,99
2337,00;97,00
2336,00;97,02
2335,00;97,04
2334,00;97,04
2333,00;97,00
2332,00;96,91
2331,00;96,79
2330,00;96,70
2329,00;96,66
2328,00;96,65
2327,00;96,62
2326,00;96,56
2325,00;96,45
2324,00;96,35
2323,00;96,28
2322,00;96,25
2321,00;96,24
2320,00;96,23
2319,00;96,22
2318,00;96,21
2317,00;96,19
2316,00;96,15
2315,00;96,09
2314,00;96,01
2313,00;95,93
2312,00;95,87
2311,00;95,81
2310,00;95,77
2309,00;95,72
2308,00;95,66
2307,00;95,59
2306,00;95,51
2305,00;95,41
2304,00;95,28
2303,00;95,15
2302,00;94,99
2301,00;94,81
2300,00;94,59
2299,00;94,32
2298,00;93,99
2297,00;93,58
2296,00;93,03
2295,00;92,32
2294,00;91,38
2293,00;90,14
2292,00;88,54
2291,00;86,58
2290,00;84,31
2289,00;81,94
2288,00;79,75
2287,00;78,06
2286,00;77,13
2285,00;77,04
2284,00;77,76
2283,00;79,08
2282,00;80,76
2281,00;82,59
2280,00;84,38
2279,00;86,03
2278,00;87,46
2277,00;88,67
2276,00;89,66
2275,00;90,47
2274,00;91,13
2273,00;91,68
2272,00;92,12
2271,00;92,50
2270,00;92,81
2269,00;93,09
2268,00;93,34
2267,00;93,58
2266,00;93,79
2265,00;93,98
2264,00;94,13
2263,00;94,25
2262,00;94,34
2261,00;94,43
2260,00;94,50
2259,00;94,56
2258,00;94,63
2257,00;94,69
2256,00;94,75
2255,00;94,81
2254,00;94,87
2253,00;94,91
2252,00;94,94
2251,00;94,95
2250,00;94,97
2249,00;94,98
2248,00;94,99
2247,00;95,02
2246,00;95,07
2245,00;95,13
2244,00;95,19
2243,00;95,22
2242,00;95,24
2241,00;95,25
2240,00;95,25
2239,00;95,26
2238,00;95,28
2237,00;95,31
2236,00;95,32
2235,00;95,33
2234,00;95,33
2233,00;95,34
2232,00;95,35
2231,00;95,36
2230,00;95,37
2229,00;95,39
2228,00;95,40
2227,00;95,41
2226,00;95,43
2225,00;95,46
2224,00;95,49
2223,00;95,51
2222,00;95,52
2221,00;95,52
2220,00;95,50
2219,00;95,49
2218,00;95,50
2217,00;95,50
2216,00;95,50
2215,00;95,49
2214,00;95,46
2213,00;95,44
2212,00;95,42
2211,00;95,43
2210,00;95,46
2209,00;95,49
2208,00;95,52
2207,00;95,53
2206,00;95,53
2205,00;95,53
2204,00;95,53
2203,00;95,53
2202,00;95,53
2201,00;95,53
2200,00;95,52
2199,00;95,52
2198,00;95,54
2197,00;95,55
2196,00;95,53
2195,00;95,50
2194,00;95,49
2193,00;95,48
2192,00;95,49
2191,00;95,50
2190,00;95,51
2189,00;95,50
2188,00;95,49
2187,00;95,48
2186,00;95,49
2185,00;95,52
2184,00;95,55
2183,00;95,59
2182,00;95,66
2181,00;95,71
2180,00;95,72
2179,00;95,68
2178,00;95,65
2177,00;95,65
2176,00;95,69
2175,00;95,73
2174,00;95,73
2173,00;95,71
2172,00;95,67
2171,00;95,61
2170,00;95,54
2169,00;95,46
2168,00;95,37
2167,00;95,29
2166,00;95,24
2165,00;95,22
2164,00;95,20
2163,00;95,15
2162,00;95,11
2161,00;95,17
2160,00;95,41
2159,00;95,81
2158,00;96,25
2157,00;96,54
2156,00;96,64
2155,00;96,61
2154,00;96,54
2153,00;96,47
2152,00;96,39
2151,00;96,32
2150,00;96,26
2149,00;96,23
2148,00;96,21
2147,00;96,20
2146,00;96,18
2145,00;96,16
2144,00;96,14
2143,00;96,12
2142,00;96,11
2141,00;96,11
2140,00;96,10
2139,00;96,09
2138,00;96,09
2137,00;96,11
2136,00;96,15
2135,00;96,22
2134,00;96,30
2133,00;96,34
2132,00;96,33
2131,00;96,27
2130,00;96,19
2129,00;96,12
2128,00;96,05
2127,00;96,00
2126,00;95,96
2125,00;95,93
2124,00;95,91
2123,00;95,88
2122,00;95,85
2121,00;95,83
2120,00;95,81
2119,00;95,79
2118,00;95,77
2117,00;95,74
2116,00;95,70
2115,00;95,65
2114,00;95,61
2113,00;95,59
2112,00;95,58
2111,00;95,57
2110,00;95,57
2109,00;95,56
2108,00;95,55
2107,00;95,55
2106,00;95,57
2105,00;95,59
2104,00;95,59
2103,00;95,58
2102,00;95,56
2101,00;95,55
2100,00;95,53
2099,00;95,54
2098,00;95,57
2097,00;95,62
2096,00;95,68
2095,00;95,73
2094,00;95,77
2093,00;95,78
2092,00;95,75
2091,00;95,71
2090,00;95,67
2089,00;95,64
2088,00;95,62
2087,00;95,60
2086,00;95,59
2085,00;95,59
2084,00;95,59
2083,00;95,59
2082,00;95,59
2081,00;95,59
2080,00;95,58
2079,00;95,56
2078,00;95,56
2077,00;95,56
2076,00;95,57
2075,00;95,58
2074,00;95,59
2073,00;95,59
2072,00;95,59
2071,00;95,61
2070,00;95,64
2069,00;95,69
2068,00;95,73
2067,00;95,76
2066,00;95,77
2065,00;95,77
2064,00;95,77
2063,00;95,78
2062,00;95,78
2061,00;95,78
2060,00;95,76
2059,00;95,74
2058,00;95,72
2057,00;95,71
2056,00;95,70
2055,00;95,72
2054,00;95,74
2053,00;95,70
2052,00;95,59
2051,00;95,47
2050,00;95,44
2049,00;95,53
2048,00;95,68
2047,00;95,80
2046,00;95,85
2045,00;95,86
2044,00;95,84
2043,00;95,84
2042,00;95,86
2041,00;95,90
2040,00;95,93
2039,00;95,94
2038,00;95,94
2037,00;95,95
2036,00;96,00
2035,00;96,08
2034,00;96,19
2033,00;96,27
2032,00;96,30
2031,00;96,30
2030,00;96,32
2029,00;96,36
2028,00;96,38
2027,00;96,38
2026,00;96,39
2025,00;96,41
2024,00;96,43
2023,00;96,44
2022,00;96,46
2021,00;96,49
2020,00;96,51
2019,00;96,53
2018,00;96,54
2017,00;96,53
2016,00;96,51
2015,00;96,48
2014,00;96,47
2013,00;96,47
2012,00;96,47
2011,00;96,46
2010,00;96,45
2009,00;96,47
2008,00;96,50
2007,00;96,57
2006,00;96,66
2005,00;96,73
2004,00;96,73
2003,00;96,68
2002,00;96,62
2001,00;96,58
2000,00;96,55
1999,00;96,52
1998,00;96,48
1997,00;96,43
1996,00;96,36
1995,00;96,31
1994,00;96,29
1993,00;96,28
1992,00;96,27
1991,00;96,24
1990,00;96,22
1989,00;96,20
1988,00;96,19
1987,00;96,17
1986,00;96,16
1985,00;96,15
1984,00;96,11
1983,00;96,02
1982,00;95,91
1981,00;95,82
1980,00;95,80
1979,00;95,88
1978,00;96,08
1977,00;96,33
1976,00;96,52
1975,00;96,63
1974,00;96,68
1973,00;96,71
1972,00;96,71
1971,00;96,69
1970,00;96,66
1969,00;96,61
1968,00;96,54
1967,00;96,49
1966,00;96,45
1965,00;96,44
1964,00;96,41
1963,00;96,39
1962,00;96,39
1961,00;96,43
1960,00;96,47
1959,00;96,51
1958,00;96,52
1957,00;96,49
1956,00;96,43
1955,00;96,36
1954,00;96,29
1953,00;96,24
1952,00;96,19
1951,00;96,13
1950,00;96,08
1949,00;96,03
1948,00;95,99
1947,00;95,95
1946,00;95,93
1945,00;95,91
1944,00;95,88
1943,00;95,85
1942,00;95,82
1941,00;95,79
1940,00;95,76
1939,00;95,74
1938,00;95,74
1937,00;95,73
1936,00;95,72
1935,00;95,71
1934,00;95,71
1933,00;95,72
1932,00;95,73
1931,00;95,73
1930,00;95,74
1929,00;95,74
1928,00;95,72
1927,00;95,71
1926,00;95,71
1925,00;95,71
1924,00;95,70
1923,00;95,68
1922,00;95,64
1921,00;95,61
1920,00;95,60
1919,00;95,59
1918,00;95,59
1917,00;95,57
1916,00;95,55
1915,00;95,54
1914,00;95,53
1913,00;95,53
1912,00;95,52
1911,00;95,49
1910,00;95,46
1909,00;95,44
1908,00;95,40
1907,00;95,38
1906,00;95,36
1905,00;95,36
1904,00;95,36
1903,00;95,34
1902,00;95,31
1901,00;95,29
1900,00;95,27
1899,00;95,25
1898,00;95,24
1897,00;95,24
1896,00;95,24
1895,00;95,23
1894,00;95,22
1893,00;95,21
1892,00;95,20
1891,00;95,19
1890,00;95,19
1889,00;95,18
1888,00;95,17
1887,00;95,16
1886,00;95,15
1885,00;95,15
1884,00;95,14
1883,00;95,12
1882,00;95,12
1881,00;95,12
1880,00;95,11
1879,00;95,10
1878,00;95,08
1877,00;95,06
1876,00;95,05
1875,00;95,03
1874,00;95,02
1873,00;95,00
1872,00;94,97
1871,00;94,95
1870,00;94,94
1869,00;94,94
1868,00;94,93
1867,00;94,92
1866,00;94,91
1865,00;94,91
1864,00;94,89
1863,00;94,86
1862,00;94,84
1861,00;94,83
1860,00;94,83
1859,00;94,81
1858,00;94,79
1857,00;94,78
1856,00;94,77
1855,00;94,76
1854,00;94,75
1853,00;94,75
1852,00;94,74
1851,00;94,74
1850,00;94,74
1849,00;94,74
1848,00;94,74
1847,00;94,74
1846,00;94,74
1845,00;94,74
1844,00;94,72
1843,00;94,69
1842,00;94,66
1841,00;94,65
1840,00;94,65
1839,00;94,62
1838,00;94,60
1837,00;94,58
1836,00;94,57
1835,00;94,56
1834,00;94,55
1833,00;94,55
1832,00;94,54
1831,00;94,52
1830,00;94,49
1829,00;94,46
1828,00;94,44
1827,00;94,43
1826,00;94,42
1825,00;94,40
1824,00;94,37
1823,00;94,34
1822,00;94,31
1821,00;94,30
1820,00;94,30
1819,00;94,30
1818,00;94,31
1817,00;94,31
1816,00;94,30
1815,00;94,25
1814,00;94,19
1813,00;94,14
1812,00;94,09
1811,00;94,04
1810,00;93,98
1809,00;93,93
1808,00;93,90
1807,00;93,86
1806,00;93,83
1805,00;93,82
1804,00;93,82
1803,00;93,83
1802,00;93,83
1801,00;93,84
1800,00;93,85
1799,00;93,86
1798,00;93,87
1797,00;93,89
1796,00;93,90
1795,00;93,91
1794,00;93,91
1793,00;93,92
1792,00;93,93
1791,00;93,95
1790,00;93,95
1789,00;93,96
1788,00;93,96
1787,00;93,95
1786,00;93,94
1785,00;93,94
1784,00;93,94
1783,00;93,94
1782,00;93,95
1781,00;93,95
1780,00;93,96
1779,00;93,97
1778,00;93,97
1777,00;93,98
1776,00;93,97
1775,00;93,96
1774,00;93,95
1773,00;93,93
1772,00;93,92
1771,00;93,92
1770,00;93,94
1769,00;93,96
1768,00;93,96
1767,00;93,94
1766,00;93,91
1765,00;93,88
1764,00;93,87
1763,00;93,85
1762,00;93,83
1761,00;93,81
1760,00;93,80
1759,00;93,81
1758,00;93,83
1757,00;93,83
1756,00;93,83
1755,00;93,84
1754,00;93,85
1753,00;93,86
1752,00;93,87
1751,00;93,88
1750,00;93,91
1749,00;93,93
1748,00;93,94
1747,00;93,95
1746,00;93,95
1745,00;93,95
1744,00;93,95
1743,00;93,95
1742,00;93,94
1741,00;93,93
1740,00;93,92
1739,00;93,91
1738,00;93,91
1737,00;93,91
1736,00;93,91
1735,00;93,90
1734,00;93,88
1733,00;93,87
1732,00;93,86
1731,00;93,88
1730,00;93,89
1729,00;93,87
1728,00;93,84
1727,00;93,80
1726,00;93,78
1725,00;93,77
1724,00;93,75
1723,00;93,73
1722,00;93,71
1721,00;93,69
1720,00;93,69
1719,00;93,68
1718,00;93,66
1717,00;93,65
1716,00;93,65
1715,00;93,64
1714,00;93,63
1713,00;93,62
1712,00;93,60
1711,00;93,57
1710,00;93,54
1709,00;93,52
1708,00;93,51
1707,00;93,49
1706,00;93,48
1705,00;93,48
1704,00;93,47
1703,00;93,46
1702,00;93,46
1701,00;93,45
1700,00;93,43
1699,00;93,39
1698,00;93,37
1697,00;93,38
1696,00;93,37
1695,00;93,30
1694,00;93,22
1693,00;93,19
1692,00;93,17
1691,00;93,13
1690,00;93,08
1689,00;93,02
1688,00;92,97
1687,00;92,91
1686,00;92,85
1685,00;92,76
1684,00;92,67
1683,00;92,59
1682,00;92,55
1681,00;92,52
1680,00;92,45
1679,00;92,36
1678,00;92,29
1677,00;92,21
1676,00;92,13
1675,00;92,05
1674,00;91,97
1673,00;91,91
1672,00;91,84
1671,00;91,77
1670,00;91,70
1669,00;91,62
1668,00;91,53
1667,00;91,45
1666,00;91,37
1665,00;91,28
1664,00;91,16
1663,00;91,04
1662,00;90,93
1661,00;90,83
1660,00;90,73
1659,00;90,62
1658,00;90,52
1657,00;90,41
1656,00;90,30
1655,00;90,19
1654,00;90,06
1653,00;89,93
1652,00;89,81
1651,00;89,72
1650,00;89,67
1649,00;89,60
1648,00;89,50
1647,00;89,37
1646,00;89,27
1645,00;89,19
1644,00;89,10
1643,00;89,00
1642,00;88,89
1641,00;88,78
1640,00;88,65
1639,00;88,53
1638,00;88,40
1637,00;88,27
1636,00;88,11
1635,00;87,95
1634,00;87,78
1633,00;87,61
1632,00;87,43
1631,00;87,23
1630,00;87,02
1629,00;86,80
1628,00;86,57
1627,00;86,33
1626,00;86,10
1625,00;85,85
1624,00;85,57
1623,00;85,28
1622,00;85,06
1621,00;84,92
1620,00;84,87
1619,00;84,91
1618,00;85,06
1617,00;85,35
1616,00;85,75
1615,00;86,18
1614,00;86,60
1613,00;86,98
1612,00;87,32
1611,00;87,63
1610,00;87,91
1609,00;88,14
1608,00;88,30
1607,00;88,40
1606,00;88,45
1605,00;88,42
1604,00;88,33
1603,00;88,19
1602,00;88,04
1601,00;87,88
1600,00;87,73
1599,00;87,60
1598,00;87,47
1597,00;87,22
1596,00;86,56
1595,00;85,10
1594,00;82,39
1593,00;78,39
1592,00;73,73
1591,00;69,66
1590,00;67,48
1589,00;67,74
1588,00;69,97
1587,00;73,18
1586,00;76,44
1585,00;79,25
1584,00;81,45
1583,00;83,16
1582,00;84,55
1581,00;85,74
1580,00;86,77
1579,00;87,66
1578,00;88,45
1577,00;89,20
1576,00;89,87
1575,00;90,42
1574,00;90,82
1573,00;91,09
1572,00;91,30
1571,00;91,49
1570,00;91,69
1569,00;91,93
1568,00;92,16
1567,00;92,37
1566,00;92,55
1565,00;92,70
1564,00;92,82
1563,00;92,93
1562,00;93,02
1561,00;93,08
1560,00;93,11
1559,00;93,17
1558,00;93,30
1557,00;93,41
1556,00;93,50
1555,00;93,56
1554,00;93,60
1553,00;93,62
1552,00;93,65
1551,00;93,69
1550,00;93,73
1549,00;93,76
1548,00;93,78
1547,00;93,81
1546,00;93,83
1545,00;93,85
1544,00;93,87
1543,00;93,89
1542,00;93,90
1541,00;93,90
1540,00;93,90
1539,00;93,90
1538,00;93,90
1537,00;93,92
1536,00;93,94
1535,00;93,93
1534,00;93,90
1533,00;93,86
1532,00;93,84
1531,00;93,82
1530,00;93,79
1529,00;93,75
1528,00;93,70
1527,00;93,62
1526,00;93,53
1525,00;93,44
1524,00;93,34
1523,00;93,23
1522,00;93,04
1521,00;92,80
1520,00;92,54
1519,00;92,29
1518,00;92,00
1517,00;91,63
1516,00;91,20
1515,00;90,73
1514,00;90,24
1513,00;89,68
1512,00;89,03
1511,00;88,31
1510,00;87,55
1509,00;86,72
1508,00;85,61
1507,00;83,92
1506,00;81,74
1505,00;79,65
1504,00;77,99
1503,00;76,60
1502,00;75,27
1501,00;74,02
1500,00;73,03
1499,00;72,44
1498,00;72,32
1497,00;72,76
1496,00;73,79
1495,00;75,22
1494,00;76,77
1493,00;78,35
1492,00;79,99
1491,00;81,71
1490,00;83,37
1489,00;84,83
1488,00;86,05
1487,00;87,03
1486,00;87,81
1485,00;88,40
1484,00;88,80
1483,00;89,05
1482,00;89,14
1481,00;89,15
1480,00;89,14
1479,00;89,08
1478,00;88,83
1477,00;88,18
1476,00;87,03
1475,00;85,61
1474,00;84,40
1473,00;84,01
1472,00;84,73
1471,00;86,16
1470,00;87,65
1469,00;88,87
1468,00;89,82
1467,00;90,52
1466,00;91,06
1465,00;91,49
1464,00;91,84
1463,00;92,11
1462,00;92,30
1461,00;92,46
1460,00;92,59
1459,00;92,70
1458,00;92,76
1457,00;92,80
1456,00;92,84
1455,00;92,88
1454,00;92,93
1453,00;92,99
1452,00;93,06
1451,00;93,14
1450,00;93,21
1449,00;93,28
1448,00;93,34
1447,00;93,38
1446,00;93,38
1445,00;93,35
1444,00;93,33
1443,00;93,30
1442,00;93,26
1441,00;93,19
1440,00;93,13
1439,00;93,06
1438,00;92,95
1437,00;92,76
1436,00;92,51
1435,00;92,22
1434,00;91,91
1433,00;91,59
1432,00;91,28
1431,00;91,02
1430,00;90,87
1429,00;90,86
1428,00;90,99
1427,00;91,23
1426,00;91,51
1425,00;91,81
1424,00;92,13
1423,00;92,44
1422,00;92,72
1421,00;92,95
1420,00;93,16
1419,00;93,38
1418,00;93,55
1417,00;93,66
1416,00;93,74
1415,00;93,79
1414,00;93,80
1413,00;93,80
1412,00;93,78
1411,00;93,75
1410,00;93,68
1409,00;93,57
1408,00;93,42
1407,00;93,21
1406,00;92,88
1405,00;92,39
1404,00;91,79
1403,00;91,20
1402,00;90,75
1401,00;90,56
1400,00;90,68
1399,00;91,10
1398,00;91,65
1397,00;92,17
1396,00;92,62
1395,00;92,99
1394,00;93,27
1393,00;93,46
1392,00;93,59
1391,00;93,69
1390,00;93,77
1389,00;93,84
1388,00;93,89
1387,00;93,95
1386,00;94,00
1385,00;94,03
1384,00;94,06
1383,00;94,08
1382,00;94,09
1381,00;94,10
1380,00;94,11
1379,00;94,11
1378,00;94,11
1377,00;94,11
1376,00;94,11
1375,00;94,13
1374,00;94,14
1373,00;94,16
1372,00;94,17
1371,00;94,19
1370,00;94,20
1369,00;94,22
1368,00;94,23
1367,00;94,25
1366,00;94,27
1365,00;94,29
1364,00;94,31
1363,00;94,34
1362,00;94,35
1361,00;94,36
1360,00;94,35
1359,00;94,34
1358,00;94,34
1357,00;94,33
1356,00;94,32
1355,00;94,32
1354,00;94,31
1353,00;94,29
1352,00;94,28
1351,00;94,25
1350,00;94,23
1349,00;94,19
1348,00;94,14
1347,00;94,09
1346,00;94,03
1345,00;93,95
1344,00;93,84
1343,00;93,71
1342,00;93,56
1341,00;93,41
1340,00;93,29
1339,00;93,22
1338,00;93,18
1337,00;93,15
1336,00;93,11
1335,00;93,05
1334,00;92,95
1333,00;92,85
1332,00;92,75
1331,00;92,66
1330,00;92,60
1329,00;92,54
1328,00;92,48
1327,00;92,41
1326,00;92,30
1325,00;92,12
1324,00;91,80
1323,00;91,34
1322,00;90,76
1321,00;90,20
1320,00;89,83
1319,00;89,80
1318,00;90,12
1317,00;90,67
1316,00;91,28
1315,00;91,84
1314,00;92,29
1313,00;92,63
1312,00;92,88
1311,00;93,06
1310,00;93,18
1309,00;93,25
1308,00;93,28
1307,00;93,28
1306,00;93,24
1305,00;93,16
1304,00;93,05
1303,00;92,88
1302,00;92,67
1301,00;92,40
1300,00;92,08
1299,00;91,73
1298,00;91,34
1297,00;90,93
1296,00;90,53
1295,00;90,19
1294,00;89,93
1293,00;89,78
1292,00;89,77
1291,00;89,88
1290,00;90,10
1289,00;90,39
1288,00;90,72
1287,00;91,09
1286,00;91,45
1285,00;91,80
1284,00;92,12
1283,00;92,39
1282,00;92,62
1281,00;92,81
1280,00;92,96
1279,00;93,08
1278,00;93,16
1277,00;93,21
1276,00;93,22
1275,00;93,19
1274,00;93,12
1273,00;92,97
1272,00;92,76
1271,00;92,49
1270,00;92,19
1269,00;91,95
1268,00;91,84
1267,00;91,91
1266,00;92,14
1265,00;92,46
1264,00;92,80
1263,00;93,12
1262,00;93,38
1261,00;93,58
1260,00;93,75
1259,00;93,88
1258,00;93,98
1257,00;94,06
1256,00;94,13
1255,00;94,17
1254,00;94,21
1253,00;94,24
1252,00;94,26
1251,00;94,29
1250,00;94,31
1249,00;94,33
1248,00;94,36
1247,00;94,37
1246,00;94,39
1245,00;94,41
1244,00;94,42
1243,00;94,43
1242,00;94,43
1241,00;94,43
1240,00;94,43
1239,00;94,42
1238,00;94,42
1237,00;94,41
1236,00;94,41
1235,00;94,40
1234,00;94,39
1233,00;94,37
1232,00;94,37
1231,00;94,36
1230,00;94,36
1229,00;94,36
1228,00;94,36
1227,00;94,36
1226,00;94,35
1225,00;94,35
1224,00;94,34
1223,00;94,34
1222,00;94,32
1221,00;94,30
1220,00;94,26
1219,00;94,20
1218,00;94,14
1217,00;94,04
1216,00;93,91
1215,00;93,76
1214,00;93,60
1213,00;93,48
1212,00;93,43
1211,00;93,44
1210,00;93,51
1209,00;93,58
1208,00;93,64
1207,00;93,65
1206,00;93,63
1205,00;93,57
1204,00;93,47
1203,00;93,31
1202,00;93,04
1201,00;92,59
1200,00;91,90
1199,00;91,06
1198,00;90,31
1197,00;89,96
1196,00;90,15
1195,00;90,75
1194,00;91,47
1193,00;92,06
1192,00;92,44
1191,00;92,66
1190,00;92,78
1189,00;92,83
1188,00;92,84
1187,00;92,83
1186,00;92,81
1185,00;92,77
1184,00;92,71
1183,00;92,65
1182,00;92,58
1181,00;92,49
1180,00;92,38
1179,00;92,27
1178,00;92,14
1177,00;91,99
1176,00;91,82
1175,00;91,64
1174,00;91,44
1173,00;91,23
1172,00;91,02
1171,00;90,83
1170,00;90,65
1169,00;90,45
1168,00;90,24
1167,00;90,01
1166,00;89,76
1165,00;89,48
1164,00;89,18
1163,00;88,87
1162,00;88,54
1161,00;88,19
1160,00;87,82
1159,00;87,43
1158,00;87,01
1157,00;86,58
1156,00;86,13
1155,00;85,68
1154,00;85,23
1153,00;84,78
1152,00;84,34
1151,00;83,91
1150,00;83,50
1149,00;83,10
1148,00;82,69
1147,00;82,28
1146,00;81,86
1145,00;81,40
1144,00;80,90
1143,00;80,36
1142,00;79,76
1141,00;79,12
1140,00;78,46
1139,00;77,80
1138,00;77,20
1137,00;76,65
1136,00;76,17
1135,00;75,76
1134,00;75,43
1133,00;75,13
1132,00;74,85
1131,00;74,57
1130,00;74,29
1129,00;74,03
1128,00;73,80
1127,00;73,64
1126,00;73,53
1125,00;73,45
1124,00;73,37
1123,00;73,26
1122,00;73,11
1121,00;72,90
1120,00;72,62
1119,00;72,30
1118,00;71,93
1117,00;71,52
1116,00;71,06
1115,00;70,58
1114,00;70,08
1113,00;69,55
1112,00;69,00
1111,00;68,44
1110,00;67,88
1109,00;67,31
1108,00;66,74
1107,00;66,17
1106,00;65,60
1105,00;65,05
1104,00;64,50
1103,00;63,97
1102,00;63,45
1101,00;62,94
1100,00;62,43
1099,00;61,93
1098,00;61,45
1097,00;60,98
1096,00;60,50
1095,00;60,02
1094,00;59,53
1093,00;59,00
1092,00;58,43
1091,00;57,81
1090,00;57,15
1089,00;56,45
1088,00;55,73
1087,00;55,05
1086,00;54,42
1085,00;53,84
1084,00;53,31
1083,00;52,79
1082,00;52,26
1081,00;51,67
1080,00;50,97
1079,00;50,21
1078,00;49,41
1077,00;48,63
1076,00;47,92
1075,00;47,31
1074,00;46,84
1073,00;46,46
1072,00;46,14
1071,00;45,88
1070,00;45,65
1069,00;45,41
1068,00;45,15
1067,00;44,87
1066,00;44,59
1065,00;44,27
1064,00;43,91
1063,00;43,52
1062,00;43,10
1061,00;42,64
1060,00;42,14
1059,00;41,61
1058,00;41,06
1057,00;40,48
1056,00;39,86
1055,00;39,24
1054,00;38,64
1053,00;38,04
1052,00;37,47
1051,00;36,96
1050,00;36,54
1049,00;36,18
1048,00;35,87
1047,00;35,59
1046,00;35,30
1045,00;34,96
1044,00;34,54
1043,00;34,07
1042,00;33,56
1041,00;32,98
1040,00;32,36
1039,00;31,71
1038,00;31,04
1037,00;30,35
1036,00;29,62
1035,00;28,90
1034,00;28,19
1033,00;27,47
1032,00;26,75
1031,00;26,05
1030,00;25,38
1029,00;24,72
1028,00;24,08
1027,00;23,49
1026,00;22,94
1025,00;22,42
1024,00;21,94
1023,00;21,51
1022,00;21,16
1021,00;20,87
1020,00;20,63
1019,00;20,45
1018,00;20,32
1017,00;20,20
1016,00;20,04
1015,00;19,85
1014,00;19,63
1013,00;19,38
1012,00;19,12
1011,00;18,91
1010,00;18,77
1009,00;18,70
1008,00;18,68
1007,00;18,76
1006,00;18,92
1005,00;19,15
1004,00;19,43
1003,00;19,78
1002,00;20,20
1001,00;20,66
1000,00;21,16
999,00;21,72
998,00;22,32
997,00;22,96
996,00;23,64
995,00;24,36
994,00;25,14
993,00;25,94
992,00;26,77
991,00;27,64
990,00;28,55
989,00;29,49
988,00;30,44
987,00;31,44
986,00;32,46
985,00;33,51
984,00;34,55
983,00;35,60
982,00;36,65
981,00;37,66
980,00;38,60
979,00;39,49
978,00;40,33
977,00;41,15
976,00;41,99
975,00;42,91
974,00;43,90
973,00;44,91
972,00;45,90
971,00;46,82
970,00;47,61
969,00;48,21
968,00;48,63
967,00;48,96
966,00;49,36
965,00;49,95
964,00;50,77
963,00;51,81
962,00;52,95
961,00;54,11
960,00;55,21
959,00;56,25
958,00;57,22
957,00;58,12
956,00;58,96
955,00;59,75
954,00;60,47
953,00;61,13
952,00;61,72
951,00;62,22
950,00;62,62
949,00;62,88
948,00;62,98
947,00;62,89
946,00;62,59
945,00;62,04
944,00;61,20
943,00;60,06
942,00;58,64
941,00;57,01
940,00;55,28
939,00;53,63
938,00;52,24
937,00;51,24
936,00;50,66
935,00;50,48
934,00;50,57
933,00;50,75
932,00;50,90
931,00;50,90
930,00;50,74
929,00;50,43
928,00;50,10
927,00;49,91
926,00;49,99
925,00;50,43
924,00;51,22
923,00;52,32
922,00;53,62
921,00;55,04
920,00;56,50
919,00;57,95
918,00;59,36
917,00;60,68
916,00;61,91
915,00;63,06
914,00;64,12
913,00;65,10
912,00;66,00
911,00;66,82
910,00;67,60
909,00;68,32
908,00;69,00
907,00;69,64
906,00;70,25
905,00;70,82
904,00;71,35
903,00;71,86
902,00;72,34
901,00;72,78
900,00;73,19
899,00;73,58
898,00;73,96
897,00;74,31
896,00;74,66
895,00;75,00
894,00;75,34
893,00;75,65
892,00;75,96
891,00;76,26
890,00;76,55
889,00;76,82
888,00;77,07
887,00;77,33
886,00;77,58
885,00;77,81
884,00;78,03
883,00;78,23
882,00;78,43
881,00;78,63
880,00;78,83
879,00;79,03
878,00;79,24
877,00;79,44
876,00;79,64
875,00;79,84
874,00;80,04
873,00;80,23
872,00;80,41
871,00;80,60
870,00;80,79
869,00;80,98
868,00;81,16
867,00;81,34
866,00;81,50
865,00;81,63
864,00;81,74
863,00;81,83
862,00;81,88
861,00;81,86
860,00;81,76
859,00;81,53
858,00;81,12
857,00;80,40
856,00;79,19
855,00;77,26
854,00;74,36
853,00;70,39
852,00;65,65
851,00;60,92
850,00;57,25
849,00;55,44
848,00;55,71
847,00;57,64
846,00;60,49
845,00;63,57
844,00;66,43
843,00;68,85
842,00;70,76
841,00;72,17
840,00;73,13
839,00;73,72
838,00;74,01
837,00;74,10
836,00;74,10
835,00;74,11
834,00;74,18
833,00;74,33
832,00;74,49
831,00;74,60
830,00;74,50
829,00;74,07
828,00;73,11
827,00;71,44
826,00;68,84
825,00;65,26
824,00;61,02
823,00;56,90
822,00;53,83
821,00;52,46
820,00;52,89
819,00;54,68
818,00;57,21
817,00;59,93
816,00;62,55
815,00;64,91
814,00;66,96
813,00;68,68
812,00;70,11
811,00;71,29
810,00;72,26
809,00;73,05
808,00;73,68
807,00;74,17
806,00;74,53
805,00;74,78
804,00;74,91
803,00;74,92
802,00;74,83
801,00;74,66
800,00;74,48
799,00;74,33
798,00;74,26
797,00;74,28
796,00;74,39
795,00;74,55
794,00;74,69
793,00;74,76
792,00;74,68
791,00;74,40
790,00;73,84
789,00;72,92
788,00;71,56
787,00;69,78
786,00;67,76
785,00;65,82
784,00;64,41
783,00;63,84
782,00;64,20
781,00;65,31
780,00;66,86
779,00;68,54
778,00;70,13
777,00;71,52
776,00;72,68
775,00;73,62
774,00;74,32
773,00;74,69
772,00;74,56
771,00;73,87
770,00;72,77
769,00;71,75
768,00;71,34
767,00;71,75
766,00;72,75
765,00;73,86
764,00;74,74
763,00;75,30
762,00;75,61
761,00;75,81
760,00;75,98
759,00;76,19
758,00;76,42
757,00;76,64
756,00;76,83
755,00;76,97
754,00;77,09
753,00;77,16
752,00;77,21
751,00;77,25
750,00;77,26
749,00;77,26
748,00;77,24
747,00;77,22
746,00;77,19
745,00;77,17
744,00;77,13
743,00;77,07
742,00;77,00
741,00;76,89
740,00;76,72
739,00;76,47
738,00;76,07
737,00;75,45
736,00;74,55
735,00;73,41
734,00;72,21
733,00;71,22
732,00;70,70
731,00;70,74
730,00;71,26
729,00;72,03
728,00;72,84
727,00;73,57
726,00;74,18
725,00;74,65
724,00;75,02
723,00;75,30
722,00;75,52
721,00;75,71
720,00;75,89
719,00;76,09
718,00;76,29
717,00;76,47
716,00;76,64
715,00;76,81
714,00;76,97
713,00;77,12
712,00;77,26
711,00;77,38
710,00;77,50
709,00;77,62
708,00;77,75
707,00;77,88
706,00;78,01
705,00;78,15
704,00;78,27
703,00;78,38
702,00;78,46
701,00;78,52
700,00;78,58
699,00;78,63
698,00;78,69
697,00;78,75
696,00;78,79
695,00;78,81
694,00;78,79
693,00;78,71
692,00;78,54
691,00;78,27
690,00;77,89
689,00;77,43
688,00;77,00
687,00;76,75
686,00;76,78
685,00;77,07
684,00;77,50
683,00;77,93
682,00;78,29
681,00;78,58
680,00;78,79
679,00;78,94
678,00;79,04
677,00;79,11
676,00;79,16
675,00;79,20
674,00;79,23
673,00;79,26
672,00;79,38
671,00;79,65
670,00;80,09
669,00;80,58
668,00;80,76
667,00;80,46
666,00;80,02
665,00;79,71
664,00;79,57
663,00;79,55
662,00;79,58
661,00;79,62
660,00;79,65
659,00;79,69
658,00;79,72
657,00;79,75
656,00;79,77
655,00;79,81
654,00;79,86
653,00;79,88
652,00;79,89
651,00;79,88
650,00;79,88
649,00;79,88
648,00;79,90
647,00;79,91
646,00;79,91
645,00;79,88
644,00;79,85
643,00;79,84
642,00;79,83
641,00;79,82
640,00;79,83
639,00;79,86
638,00;79,90
637,00;79,93
636,00;79,95
635,00;79,96
634,00;79,97
633,00;79,96
632,00;79,95
631,00;79,95
630,00;79,96
629,00;80,00
628,00;80,04
627,00;80,07
626,00;80,08
625,00;80,06
624,00;80,05
623,00;80,05
622,00;80,08
621,00;80,11
620,00;80,14
619,00;80,16
618,00;80,17
617,00;80,18
616,00;80,18
615,00;80,18
614,00;80,18
613,00;80,19
612,00;80,20
611,00;80,21
610,00;80,23
609,00;80,24
608,00;80,25
607,00;80,28
606,00;80,32
605,00;80,35
604,00;80,35
603,00;80,33
602,00;80,30
601,00;80,29
600,00;80,31
599,00;80,34
598,00;80,36
597,00;80,37
596,00;80,37
595,00;80,39
594,00;80,43
593,00;80,47
592,00;80,51
591,00;80,55
590,00;80,58
589,00;80,57
588,00;80,54
587,00;80,52
586,00;80,51
585,00;80,52
584,00;80,52
583,00;80,53
582,00;80,53
581,00;80,53
580,00;80,53
579,00;80,54
578,00;80,56
577,00;80,59
576,00;80,62
575,00;80,64
574,00;80,65
573,00;80,65
572,00;80,64
571,00;80,63
570,00;80,64
569,00;80,66
568,00;80,68
567,00;80,70
566,00;80,70
565,00;80,68
564,00;80,65
563,00;80,62
562,00;80,60
561,00;80,56
560,00;80,51
559,00;80,44
558,00;80,37
557,00;80,27
556,00;80,11
555,00;79,86
554,00;79,52
553,00;79,12
552,00;78,74
551,00;78,42
550,00;78,11
549,00;77,65
548,00;76,74
547,00;74,98
546,00;71,96
545,00;67,50
544,00;62,01
543,00;56,56
542,00;52,47
541,00;50,66
540,00;51,19
539,00;53,42
538,00;56,35
537,00;59,11
536,00;61,23
535,00;62,58
534,00;63,24
533,00;63,32
532,00;62,94
531,00;62,21
530,00;61,24
529,00;60,13
528,00;58,92
527,00;57,63
526,00;56,25
525,00;54,80
524,00;53,40
523,00;52,30
522,00;51,74
521,00;51,87
520,00;52,73
519,00;54,24
518,00;56,21
517,00;58,38
516,00;60,47
515,00;62,36
514,00;64,02
513,00;65,44
512,00;66,66
511,00;67,69
510,00;68,55
509,00;69,26
508,00;69,84
507,00;70,27
506,00;70,50
505,00;70,38
504,00;69,71
503,00;68,41
502,00;66,72
501,00;65,23
500,00;64,55
499,00;64,85
498,00;65,88
497,00;67,14
496,00;68,25
495,00;69,05
494,00;69,55
493,00;69,83
492,00;70,03
491,00;70,32
490,00;70,75
489,00;71,28
488,00;71,77
487,00;72,20
486,00;72,54
485,00;72,82
484,00;73,06
483,00;73,29
482,00;73,53
481,00;73,74
480,00;73,93
479,00;74,12
478,00;74,31
477,00;74,47
476,00;74,59
475,00;74,68
474,00;74,77
473,00;74,86
472,00;74,96
471,00;75,10
470,00;75,24
469,00;75,37
468,00;75,49
467,00;75,61
466,00;75,76
465,00;75,92
464,00;76,11
463,00;76,31
462,00;76,48
461,00;76,57
460,00;76,58
459,00;76,55
458,00;76,49
457,00;76,37
456,00;76,30
455,00;76,23
454,00;76,15
453,00;75,96
452,00;75,64
451,00;75,21
450,00;74,70
