sinacsa
Scan
1.1
171020_0min.dsp
nm
200
800
1
601
A
0.0036
3.4934
0
Kemi1\Kemi01

20-10-2017 13:04:41
20-10-2017 13:05:51
20-10-2017 13:04:41
0
Version 1, 20-10-2017 13:05:51, Kemi1\Kemi01: |Created; Method: SOK-200_to_800.msc (Version 2 / 13-04-2016 14:10:01)||
SOK-200_to_800.msc (Version 2 / 13-04-2016 14:10:01)
1
0
0
sec
0
0

GENESYS 10S UV-Vis
4.006
2L9T161212
1.8
1
1
1
0
0
0
Cell changer 6
1
0
0
VISIONlite Scan Version 5.0






||





KEMI1
0





Medium
1
0
0
0
1
3
1
0
85.75
0
0
0
0
0
0
0
0
0
0
1
0
1
0
0
0
0
0
0
0
0
0
0
0
0
0
0
0
0
0
0
3
2
0
0
0
0
0
0
0
0
0
0
0
0
0
0
0
0
0
#SPECIFIC1
1
0
0.01

#SPECIFIC2

#SPECIFIC3

#DATA
2.9574
2.9923
3.0453
3.1061
3.1134
3.1263
3.1377
3.1169
3.1016
3.1041
3.1025
3.1089
3.1247
3.1278
3.1305
3.1345
3.1345
3.139
3.1413
3.1444
3.1352
3.1454
3.1604
3.17
3.1839
3.1652
3.1746
3.1942
3.2235
3.2268
3.2192
3.2058
3.1865
3.168
3.1646
3.1607
3.1589
3.1563
3.1419
3.1406
3.1345
3.1566
3.1691
3.1681
3.1564
3.133
3.1416
3.163
3.1623
3.1529
3.1322
3.1332
3.1473
3.1569
3.1389
3.148
3.1378
3.1609
3.1712
3.1954
3.2158
3.2125
3.1779
3.1636
3.1597
3.1421
3.1446
3.1392
3.126
3.1109
3.1188
3.1215
3.1351
3.1169
3.116
3.1138
3.1155
3.1235
3.1078
3.0966
3.1035
3.1017
3.1073
3.1136
3.1238
3.1501
3.1561
3.1788
3.1756
3.1718
3.1767
3.1786
3.1724
3.1927
3.2113
3.2421
3.2818
3.3305
3.37
3.3809
3.429
3.4551
3.4819
3.4934
3.4707
3.4541
3.4565
3.4492
3.4597
3.446
3.4115
3.3824
3.3449
3.3147
3.3026
3.2841
3.2287
3.1927
3.168
3.1476
3.1205
3.0882
3.0805
3.086
3.0809
3.0428
3.0188
3.0035
2.976
2.966
2.9549
2.9426
2.9449
2.9449
2.9322
2.9166
2.8997
2.8939
2.8921
2.8801
2.8696
2.8639
2.8657
2.8696
2.8768
2.8786
2.8715
2.8426
2.8123
2.8171
2.8204
2.8131
2.8103
2.8085
2.8071
2.7985
2.7851
2.7719
2.734
2.6543
2.5699
2.4514
2.3188
2.1497
1.9495
1.7647
1.6006
1.4403
1.2886
1.1438
1.0107
0.8973
0.7989
0.7035
0.6219
0.5547
0.4941
0.4459
0.4088
0.3724
0.3371
0.3084
0.2847
0.2637
0.2459
0.2306
0.2172
0.2057
0.1958
0.1875
0.1797
0.1724
0.167
0.1617
0.1566
0.153
0.149
0.1455
0.1425
0.1397
0.1374
0.1351
0.1332
0.1316
0.1298
0.1285
0.1275
0.1265
0.1253
0.1244
0.1234
0.1227
0.1223
0.1216
0.1212
0.1208
0.1202
0.1198
0.1194
0.1191
0.1188
0.1186
0.1183
0.1181
0.1178
0.1178
0.1176
0.1172
0.1171
0.1168
0.1164
0.1161
0.1157
0.1154
0.1153
0.1149
0.1149
0.1145
0.1143
0.114
0.1138
0.1137
0.1136
0.1134
0.1134
0.1131
0.1131
0.113
0.113
0.113
0.1131
0.1129
0.113
0.113
0.1131
0.1131
0.1132
0.1133
0.1133
0.1132
0.1135
0.1136
0.1137
0.1138
0.1142
0.1144
0.1148
0.115
0.1154
0.116
0.1164
0.1169
0.1175
0.1178
0.1184
0.1193
0.1194
0.1203
0.1206
0.1209
0.1218
0.1221
0.1228
0.123
0.1237
0.1238
0.1246
0.125
0.1257
0.1261
0.1262
0.1264
0.1268
0.1271
0.1273
0.1273
0.1271
0.1274
0.1274
0.1272
0.1268
0.1266
0.1266
0.1265
0.126
0.1255
0.1251
0.1247
0.1238
0.1236
0.1227
0.1218
0.1208
0.12
0.1191
0.1181
0.1173
0.1162
0.115
0.1139
0.1127
0.1116
0.1103
0.1091
0.1078
0.1064
0.105
0.1037
0.1025
0.1008
0.0996
0.0979
0.0963
0.0945
0.0932
0.0918
0.0901
0.0884
0.0865
0.0846
0.0828
0.0811
0.0797
0.078
0.0762
0.0742
0.0724
0.0702
0.0686
0.067
0.0648
0.0634
0.0616
0.0597
0.0581
0.0564
0.0548
0.0533
0.0513
0.0499
0.0486
0.0473
0.0453
0.0443
0.0427
0.0416
0.0404
0.0393
0.0382
0.0372
0.0361
0.0351
0.0341
0.0333
0.0326
0.0314
0.0311
0.0303
0.0291
0.0286
0.0277
0.0273
0.0267
0.026
0.0251
0.0244
0.0243
0.0235
0.0233
0.0228
0.0217
0.0216
0.0214
0.0207
0.0204
0.02
0.0201
0.0194
0.0187
0.0187
0.018
0.0178
0.0176
0.0169
0.0167
0.0165
0.0166
0.016
0.0155
0.0154
0.0152
0.0155
0.0152
0.0147
0.0145
0.0145
0.0136
0.0137
0.0133
0.0132
0.0133
0.0131
0.0127
0.0129
0.0126
0.0125
0.0123
0.012
0.0118
0.0117
0.0113
0.0114
0.0114
0.0109
0.0113
0.0107
0.0111
0.011
0.0105
0.0106
0.0104
0.0103
0.0103
0.01
0.0101
0.0104
0.0102
0.0099
0.0094
0.0095
0.0093
0.0096
0.0088
0.0088
0.0092
0.0091
0.0094
0.0089
0.009
0.0094
0.0091
0.0088
0.0089
0.0086
0.0083
0.0084
0.0085
0.0081
0.0084
0.008
0.0082
0.0079
0.0082
0.0078
0.0086
0.0082
0.008
0.0076
0.008
0.0078
0.0081
0.0082
0.0079
0.008
0.008
0.0076
0.0081
0.0077
0.0076
0.0072
0.0079
0.0078
0.0071
0.0074
0.0077
0.0072
0.0067
0.0073
0.0073
0.0071
0.0069
0.0071
0.0072
0.007
0.0074
0.007
0.0076
0.0064
0.0067
0.0065
0.0065
0.0066
0.0064
0.0067
0.0059
0.0065
0.0062
0.0063
0.0065
0.0058
0.0059
0.006
0.0065
0.0063
0.0065
0.0066
0.0055
0.0058
0.0058
0.0062
0.0061
0.0064
0.006
0.0055
0.0062
0.0059
0.006
0.0071
0.0055
0.006
0.0057
0.0058
0.0057
0.0069
0.0056
0.0062
0.0058
0.0058
0.0056
0.0053
0.0053
0.0053
0.0055
0.0054
0.0053
0.0051
0.0054
0.0048
0.0056
0.0053
0.0047
0.0051
0.0049
0.0048
0.0052
0.0047
0.0047
0.0053
0.0048
0.0056
0.0048
0.0048
0.0052
0.0047
0.0047
0.0042
0.0037
0.005
0.0046
0.0049
0.0046
0.0051
0.0049
0.0036
0.004
0.004
0.0051
0.0051
0.0049
0.0041
0.0044
0.0049
0.0046
0.0053
0.0038
0.0041
0.0036
0.0042
0.0038
0.0041
0.0051
