Created as New Dataset;Sample 1001 By Administrator Date fredag, september 22 2017
cm-1;%T
4000,00;85,57
3999,00;85,56
3998,00;85,56
3997,00;85,56
3996,00;85,55
3995,00;85,55
3994,00;85,55
3993,00;85,54
3992,00;85,54
3991,00;85,55
3990,00;85,56
3989,00;85,57
3988,00;85,58
3987,00;85,58
3986,00;85,59
3985,00;85,59
3984,00;85,58
3983,00;85,58
3982,00;85,58
3981,00;85,58
3980,00;85,58
3979,00;85,58
3978,00;85,57
3977,00;85,57
3976,00;85,57
3975,00;85,56
3974,00;85,56
3973,00;85,56
3972,00;85,55
3971,00;85,56
3970,00;85,57
3969,00;85,58
3968,00;85,60
3967,00;85,61
3966,00;85,61
3965,00;85,59
3964,00;85,58
3963,00;85,57
3962,00;85,57
3961,00;85,58
3960,00;85,58
3959,00;85,59
3958,00;85,59
3957,00;85,60
3956,00;85,60
3955,00;85,59
3954,00;85,57
3953,00;85,53
3952,00;85,48
3951,00;85,43
3950,00;85,41
3949,00;85,41
3948,00;85,44
3947,00;85,46
3946,00;85,46
3945,00;85,45
3944,00;85,46
3943,00;85,49
3942,00;85,53
3941,00;85,55
3940,00;85,57
3939,00;85,61
3938,00;85,65
3937,00;85,65
3936,00;85,59
3935,00;85,49
3934,00;85,41
3933,00;85,38
3932,00;85,39
3931,00;85,43
3930,00;85,47
3929,00;85,48
3928,00;85,46
3927,00;85,43
3926,00;85,42
3925,00;85,43
3924,00;85,43
3923,00;85,39
3922,00;85,35
3921,00;85,33
3920,00;85,33
3919,00;85,33
3918,00;85,37
3917,00;85,46
3916,00;85,57
3915,00;85,66
3914,00;85,71
3913,00;85,76
3912,00;85,80
3911,00;85,79
3910,00;85,73
3909,00;85,61
3908,00;85,42
3907,00;85,19
3906,00;84,96
3905,00;84,77
3904,00;84,66
3903,00;84,62
3902,00;84,65
3901,00;84,79
3900,00;85,04
3899,00;85,32
3898,00;85,51
3897,00;85,58
3896,00;85,58
3895,00;85,52
3894,00;85,40
3893,00;85,28
3892,00;85,26
3891,00;85,30
3890,00;85,29
3889,00;85,18
3888,00;85,09
3887,00;85,12
3886,00;85,23
3885,00;85,29
3884,00;85,20
3883,00;85,06
3882,00;85,05
3881,00;85,20
3880,00;85,38
3879,00;85,45
3878,00;85,39
3877,00;85,34
3876,00;85,34
3875,00;85,32
3874,00;85,20
3873,00;84,94
3872,00;84,67
3871,00;84,61
3870,00;84,77
3869,00;84,93
3868,00;84,91
3867,00;84,85
3866,00;84,93
3865,00;85,08
3864,00;85,18
3863,00;85,21
3862,00;85,25
3861,00;85,34
3860,00;85,42
3859,00;85,39
3858,00;85,18
3857,00;84,77
3856,00;84,23
3855,00;83,76
3854,00;83,68
3853,00;84,05
3852,00;84,45
3851,00;84,64
3850,00;84,94
3849,00;85,37
3848,00;85,68
3847,00;85,74
3846,00;85,64
3845,00;85,47
3844,00;85,30
3843,00;85,10
3842,00;84,86
3841,00;84,62
3840,00;84,45
3839,00;84,40
3838,00;84,46
3837,00;84,57
3836,00;84,67
3835,00;84,79
3834,00;84,96
3833,00;85,17
3832,00;85,37
3831,00;85,48
3830,00;85,50
3829,00;85,48
3828,00;85,48
3827,00;85,51
3826,00;85,46
3825,00;85,24
3824,00;84,93
3823,00;84,68
3822,00;84,63
3821,00;84,73
3820,00;84,76
3819,00;84,62
3818,00;84,58
3817,00;84,81
3816,00;85,16
3815,00;85,40
3814,00;85,47
3813,00;85,54
3812,00;85,70
3811,00;85,78
3810,00;85,66
3809,00;85,44
3808,00;85,29
3807,00;85,28
3806,00;85,24
3805,00;85,03
3804,00;84,80
3803,00;84,73
3802,00;84,85
3801,00;85,00
3800,00;85,01
3799,00;84,94
3798,00;85,06
3797,00;85,36
3796,00;85,63
3795,00;85,77
3794,00;85,82
3793,00;85,89
3792,00;85,99
3791,00;86,06
3790,00;86,05
3789,00;86,00
3788,00;85,93
3787,00;85,87
3786,00;85,83
3785,00;85,81
3784,00;85,78
3783,00;85,70
3782,00;85,61
3781,00;85,57
3780,00;85,62
3779,00;85,71
3778,00;85,77
3777,00;85,82
3776,00;85,89
3775,00;85,97
3774,00;85,97
3773,00;85,84
3772,00;85,67
3771,00;85,57
3770,00;85,54
3769,00;85,53
3768,00;85,50
3767,00;85,52
3766,00;85,65
3765,00;85,80
3764,00;85,83
3763,00;85,74
3762,00;85,63
3761,00;85,56
3760,00;85,51
3759,00;85,46
3758,00;85,42
3757,00;85,38
3756,00;85,27
3755,00;85,09
3754,00;84,82
3753,00;84,51
3752,00;84,26
3751,00;84,20
3750,00;84,32
3749,00;84,41
3748,00;84,37
3747,00;84,30
3746,00;84,34
3745,00;84,60
3744,00;84,99
3743,00;85,21
3742,00;85,22
3741,00;85,29
3740,00;85,39
3739,00;85,29
3738,00;84,97
3737,00;84,66
3736,00;84,51
3735,00;84,54
3734,00;84,67
3733,00;84,90
3732,00;85,22
3731,00;85,49
3730,00;85,62
3729,00;85,67
3728,00;85,71
3727,00;85,74
3726,00;85,73
3725,00;85,67
3724,00;85,63
3723,00;85,66
3722,00;85,74
3721,00;85,80
3720,00;85,86
3719,00;85,92
3718,00;85,99
3717,00;85,99
3716,00;85,88
3715,00;85,66
3714,00;85,41
3713,00;85,20
3712,00;85,11
3711,00;85,15
3710,00;85,27
3709,00;85,45
3708,00;85,67
3707,00;85,90
3706,00;86,05
3705,00;86,06
3704,00;86,01
3703,00;85,95
3702,00;85,95
3701,00;86,00
3700,00;86,05
3699,00;86,09
3698,00;86,17
3697,00;86,25
3696,00;86,25
3695,00;86,14
3694,00;85,94
3693,00;85,68
3692,00;85,41
3691,00;85,15
3690,00;85,04
3689,00;85,13
3688,00;85,35
3687,00;85,56
3686,00;85,78
3685,00;86,03
3684,00;86,25
3683,00;86,33
3682,00;86,26
3681,00;86,10
3680,00;85,88
3679,00;85,54
3678,00;85,12
3677,00;84,81
3676,00;84,79
3675,00;84,99
3674,00;85,06
3673,00;84,99
3672,00;85,05
3671,00;85,29
3670,00;85,54
3669,00;85,73
3668,00;85,84
3667,00;85,98
3666,00;86,22
3665,00;86,43
3664,00;86,53
3663,00;86,53
3662,00;86,49
3661,00;86,41
3660,00;86,27
3659,00;86,10
3658,00;85,96
3657,00;85,93
3656,00;85,98
3655,00;85,96
3654,00;85,78
3653,00;85,53
3652,00;85,25
3651,00;84,96
3650,00;84,78
3649,00;84,81
3648,00;85,01
3647,00;85,29
3646,00;85,60
3645,00;85,91
3644,00;86,18
3643,00;86,35
3642,00;86,43
3641,00;86,42
3640,00;86,37
3639,00;86,34
3638,00;86,30
3637,00;86,25
3636,00;86,18
3635,00;86,13
3634,00;86,06
3633,00;85,89
3632,00;85,59
3631,00;85,28
3630,00;85,15
3629,00;85,31
3628,00;85,62
3627,00;85,82
3626,00;85,97
3625,00;86,19
3624,00;86,33
3623,00;86,27
3622,00;86,05
3621,00;85,83
3620,00;85,71
3619,00;85,70
3618,00;85,73
3617,00;85,73
3616,00;85,73
3615,00;85,77
3614,00;85,81
3613,00;85,82
3612,00;85,78
3611,00;85,74
3610,00;85,77
3609,00;85,89
3608,00;86,05
3607,00;86,18
3606,00;86,26
3605,00;86,31
3604,00;86,33
3603,00;86,32
3602,00;86,28
3601,00;86,22
3600,00;86,16
3599,00;86,10
3598,00;86,05
3597,00;86,03
3596,00;86,04
3595,00;86,09
3594,00;86,15
3593,00;86,19
3592,00;86,16
3591,00;86,07
3590,00;85,96
3589,00;85,87
3588,00;85,89
3587,00;86,00
3586,00;86,13
3585,00;86,24
3584,00;86,35
3583,00;86,46
3582,00;86,51
3581,00;86,52
3580,00;86,50
3579,00;86,47
3578,00;86,46
3577,00;86,45
3576,00;86,44
3575,00;86,45
3574,00;86,46
3573,00;86,44
3572,00;86,38
3571,00;86,24
3570,00;86,05
3569,00;85,87
3568,00;85,79
3567,00;85,84
3566,00;85,95
3565,00;86,06
3564,00;86,17
3563,00;86,28
3562,00;86,37
3561,00;86,44
3560,00;86,47
3559,00;86,50
3558,00;86,52
3557,00;86,52
3556,00;86,50
3555,00;86,46
3554,00;86,43
3553,00;86,41
3552,00;86,40
3551,00;86,39
3550,00;86,35
3549,00;86,31
3548,00;86,28
3547,00;86,28
3546,00;86,30
3545,00;86,35
3544,00;86,41
3543,00;86,47
3542,00;86,52
3541,00;86,56
3540,00;86,58
3539,00;86,58
3538,00;86,57
3537,00;86,56
3536,00;86,56
3535,00;86,57
3534,00;86,57
3533,00;86,56
3532,00;86,53
3531,00;86,50
3530,00;86,45
3529,00;86,41
3528,00;86,38
3527,00;86,37
3526,00;86,36
3525,00;86,37
3524,00;86,41
3523,00;86,47
3522,00;86,51
3521,00;86,54
3520,00;86,57
3519,00;86,60
3518,00;86,62
3517,00;86,63
3516,00;86,64
3515,00;86,64
3514,00;86,63
3513,00;86,61
3512,00;86,58
3511,00;86,55
3510,00;86,54
3509,00;86,55
3508,00;86,56
3507,00;86,55
3506,00;86,54
3505,00;86,52
3504,00;86,51
3503,00;86,52
3502,00;86,53
3501,00;86,56
3500,00;86,60
3499,00;86,64
3498,00;86,66
3497,00;86,67
3496,00;86,68
3495,00;86,68
3494,00;86,68
3493,00;86,68
3492,00;86,69
3491,00;86,69
3490,00;86,68
3489,00;86,67
3488,00;86,67
3487,00;86,68
3486,00;86,68
3485,00;86,67
3484,00;86,66
3483,00;86,66
3482,00;86,67
3481,00;86,68
3480,00;86,69
3479,00;86,71
3478,00;86,73
3477,00;86,74
3476,00;86,75
3475,00;86,75
3474,00;86,75
3473,00;86,76
3472,00;86,76
3471,00;86,76
3470,00;86,76
3469,00;86,76
3468,00;86,76
3467,00;86,76
3466,00;86,76
3465,00;86,75
3464,00;86,75
3463,00;86,75
3462,00;86,75
3461,00;86,75
3460,00;86,75
3459,00;86,76
3458,00;86,77
3457,00;86,79
3456,00;86,80
3455,00;86,80
3454,00;86,81
3453,00;86,80
3452,00;86,80
3451,00;86,78
3450,00;86,75
3449,00;86,72
3448,00;86,70
3447,00;86,69
3446,00;86,70
3445,00;86,71
3444,00;86,73
3443,00;86,76
3442,00;86,78
3441,00;86,80
3440,00;86,81
3439,00;86,81
3438,00;86,82
3437,00;86,83
3436,00;86,84
3435,00;86,84
3434,00;86,83
3433,00;86,84
3432,00;86,84
3431,00;86,84
3430,00;86,84
3429,00;86,83
3428,00;86,83
3427,00;86,83
3426,00;86,83
3425,00;86,83
3424,00;86,82
3423,00;86,80
3422,00;86,79
3421,00;86,79
3420,00;86,79
3419,00;86,80
3418,00;86,82
3417,00;86,84
3416,00;86,85
3415,00;86,86
3414,00;86,87
3413,00;86,86
3412,00;86,86
3411,00;86,86
3410,00;86,86
3409,00;86,86
3408,00;86,86
3407,00;86,86
3406,00;86,87
3405,00;86,87
3404,00;86,87
3403,00;86,87
3402,00;86,87
3401,00;86,86
3400,00;86,86
3399,00;86,85
3398,00;86,85
3397,00;86,86
3396,00;86,85
3395,00;86,85
3394,00;86,85
3393,00;86,85
3392,00;86,86
3391,00;86,86
3390,00;86,87
3389,00;86,87
3388,00;86,88
3387,00;86,88
3386,00;86,88
3385,00;86,88
3384,00;86,88
3383,00;86,88
3382,00;86,89
3381,00;86,89
3380,00;86,90
3379,00;86,90
3378,00;86,90
3377,00;86,91
3376,00;86,91
3375,00;86,91
3374,00;86,91
3373,00;86,91
3372,00;86,91
3371,00;86,91
3370,00;86,91
3369,00;86,90
3368,00;86,90
3367,00;86,90
3366,00;86,90
3365,00;86,90
3364,00;86,90
3363,00;86,90
3362,00;86,91
3361,00;86,92
3360,00;86,92
3359,00;86,92
3358,00;86,92
3357,00;86,92
3356,00;86,92
3355,00;86,92
3354,00;86,93
3353,00;86,94
3352,00;86,94
3351,00;86,95
3350,00;86,95
3349,00;86,95
3348,00;86,95
3347,00;86,96
3346,00;86,96
3345,00;86,96
3344,00;86,96
3343,00;86,96
3342,00;86,97
3341,00;86,97
3340,00;86,97
3339,00;86,96
3338,00;86,96
3337,00;86,95
3336,00;86,95
3335,00;86,95
3334,00;86,96
3333,00;86,96
3332,00;86,97
3331,00;86,97
3330,00;86,97
3329,00;86,97
3328,00;86,98
3327,00;86,98
3326,00;86,98
3325,00;86,98
3324,00;86,99
3323,00;86,99
3322,00;87,00
3321,00;87,00
3320,00;87,00
3319,00;87,01
3318,00;87,01
3317,00;87,01
3316,00;87,01
3315,00;87,01
3314,00;87,01
3313,00;87,01
3312,00;87,01
3311,00;87,00
3310,00;87,00
3309,00;87,01
3308,00;87,01
3307,00;87,02
3306,00;87,03
3305,00;87,04
3304,00;87,04
3303,00;87,04
3302,00;87,04
3301,00;87,04
3300,00;87,04
3299,00;87,04
3298,00;87,05
3297,00;87,05
3296,00;87,05
3295,00;87,05
3294,00;87,05
3293,00;87,05
3292,00;87,05
3291,00;87,05
3290,00;87,06
3289,00;87,06
3288,00;87,07
3287,00;87,07
3286,00;87,07
3285,00;87,07
3284,00;87,08
3283,00;87,08
3282,00;87,08
3281,00;87,08
3280,00;87,07
3279,00;87,07
3278,00;87,07
3277,00;87,07
3276,00;87,07
3275,00;87,07
3274,00;87,08
3273,00;87,08
3272,00;87,09
3271,00;87,11
3270,00;87,11
3269,00;87,12
3268,00;87,12
3267,00;87,12
3266,00;87,12
3265,00;87,12
3264,00;87,12
3263,00;87,13
3262,00;87,13
3261,00;87,13
3260,00;87,13
3259,00;87,13
3258,00;87,13
3257,00;87,13
3256,00;87,13
3255,00;87,13
3254,00;87,13
3253,00;87,13
3252,00;87,14
3251,00;87,15
3250,00;87,16
3249,00;87,16
3248,00;87,16
3247,00;87,16
3246,00;87,16
3245,00;87,16
3244,00;87,16
3243,00;87,16
3242,00;87,17
3241,00;87,17
3240,00;87,18
3239,00;87,18
3238,00;87,19
3237,00;87,19
3236,00;87,20
3235,00;87,20
3234,00;87,20
3233,00;87,20
3232,00;87,20
3231,00;87,19
3230,00;87,19
3229,00;87,19
3228,00;87,20
3227,00;87,20
3226,00;87,21
3225,00;87,21
3224,00;87,21
3223,00;87,21
3222,00;87,20
3221,00;87,20
3220,00;87,20
3219,00;87,20
3218,00;87,21
3217,00;87,21
3216,00;87,21
3215,00;87,21
3214,00;87,21
3213,00;87,21
3212,00;87,21
3211,00;87,21
3210,00;87,22
3209,00;87,23
3208,00;87,24
3207,00;87,25
3206,00;87,26
3205,00;87,26
3204,00;87,26
3203,00;87,26
3202,00;87,26
3201,00;87,26
3200,00;87,25
3199,00;87,25
3198,00;87,24
3197,00;87,24
3196,00;87,24
3195,00;87,24
3194,00;87,25
3193,00;87,25
3192,00;87,26
3191,00;87,27
3190,00;87,28
3189,00;87,28
3188,00;87,28
3187,00;87,27
3186,00;87,27
3185,00;87,27
3184,00;87,27
3183,00;87,27
3182,00;87,27
3181,00;87,26
3180,00;87,26
3179,00;87,26
3178,00;87,26
3177,00;87,27
3176,00;87,27
3175,00;87,28
3174,00;87,29
3173,00;87,29
3172,00;87,30
3171,00;87,30
3170,00;87,30
3169,00;87,30
3168,00;87,30
3167,00;87,30
3166,00;87,30
3165,00;87,30
3164,00;87,30
3163,00;87,30
3162,00;87,30
3161,00;87,30
3160,00;87,30
3159,00;87,30
3158,00;87,30
3157,00;87,30
3156,00;87,31
3155,00;87,31
3154,00;87,31
3153,00;87,32
3152,00;87,32
3151,00;87,32
3150,00;87,32
3149,00;87,31
3148,00;87,31
3147,00;87,31
3146,00;87,31
3145,00;87,32
3144,00;87,32
3143,00;87,32
3142,00;87,33
3141,00;87,33
3140,00;87,33
3139,00;87,34
3138,00;87,34
3137,00;87,34
3136,00;87,33
3135,00;87,32
3134,00;87,32
3133,00;87,32
3132,00;87,32
3131,00;87,33
3130,00;87,33
3129,00;87,34
3128,00;87,34
3127,00;87,34
3126,00;87,33
3125,00;87,32
3124,00;87,32
3123,00;87,32
3122,00;87,33
3121,00;87,34
3120,00;87,34
3119,00;87,35
3118,00;87,35
3117,00;87,35
3116,00;87,35
3115,00;87,35
3114,00;87,35
3113,00;87,35
3112,00;87,35
3111,00;87,36
3110,00;87,37
3109,00;87,37
3108,00;87,38
3107,00;87,38
3106,00;87,37
3105,00;87,37
3104,00;87,36
3103,00;87,36
3102,00;87,36
3101,00;87,36
3100,00;87,37
3099,00;87,37
3098,00;87,37
3097,00;87,37
3096,00;87,37
3095,00;87,37
3094,00;87,38
3093,00;87,39
3092,00;87,40
3091,00;87,41
3090,00;87,41
3089,00;87,42
3088,00;87,42
3087,00;87,42
3086,00;87,43
3085,00;87,43
3084,00;87,43
3083,00;87,42
3082,00;87,42
3081,00;87,41
3080,00;87,41
3079,00;87,41
3078,00;87,41
3077,00;87,42
3076,00;87,43
3075,00;87,44
3074,00;87,44
3073,00;87,44
3072,00;87,44
3071,00;87,44
3070,00;87,44
3069,00;87,44
3068,00;87,43
3067,00;87,43
3066,00;87,43
3065,00;87,42
3064,00;87,42
3063,00;87,43
3062,00;87,44
3061,00;87,45
3060,00;87,45
3059,00;87,45
3058,00;87,45
3057,00;87,45
3056,00;87,46
3055,00;87,47
3054,00;87,48
3053,00;87,48
3052,00;87,48
3051,00;87,48
3050,00;87,49
3049,00;87,49
3048,00;87,49
3047,00;87,50
3046,00;87,51
3045,00;87,51
3044,00;87,51
3043,00;87,51
3042,00;87,51
3041,00;87,50
3040,00;87,50
3039,00;87,51
3038,00;87,51
3037,00;87,51
3036,00;87,51
3035,00;87,51
3034,00;87,50
3033,00;87,50
3032,00;87,50
3031,00;87,50
3030,00;87,51
3029,00;87,51
3028,00;87,52
3027,00;87,52
3026,00;87,52
3025,00;87,52
3024,00;87,52
3023,00;87,52
3022,00;87,53
3021,00;87,54
3020,00;87,54
3019,00;87,55
3018,00;87,55
3017,00;87,56
3016,00;87,57
3015,00;87,58
3014,00;87,58
3013,00;87,59
3012,00;87,59
3011,00;87,59
3010,00;87,59
3009,00;87,59
3008,00;87,59
3007,00;87,59
3006,00;87,59
3005,00;87,58
3004,00;87,58
3003,00;87,57
3002,00;87,57
3001,00;87,58
3000,00;87,58
2999,00;87,58
2998,00;87,58
2997,00;87,58
2996,00;87,57
2995,00;87,57
2994,00;87,56
2993,00;87,56
2992,00;87,56
2991,00;87,56
2990,00;87,56
2989,00;87,55
2988,00;87,55
2987,00;87,55
2986,00;87,55
2985,00;87,55
2984,00;87,55
2983,00;87,55
2982,00;87,55
2981,00;87,56
2980,00;87,56
2979,00;87,56
2978,00;87,56
2977,00;87,56
2976,00;87,56
2975,00;87,55
2974,00;87,55
2973,00;87,55
2972,00;87,56
2971,00;87,56
2970,00;87,56
2969,00;87,57
2968,00;87,58
2967,00;87,59
2966,00;87,61
2965,00;87,62
2964,00;87,63
2963,00;87,64
2962,00;87,65
2961,00;87,65
2960,00;87,66
2959,00;87,67
2958,00;87,68
2957,00;87,69
2956,00;87,70
2955,00;87,70
2954,00;87,70
2953,00;87,70
2952,00;87,70
2951,00;87,70
2950,00;87,70
2949,00;87,70
2948,00;87,70
2947,00;87,71
2946,00;87,71
2945,00;87,71
2944,00;87,71
2943,00;87,71
2942,00;87,72
2941,00;87,72
2940,00;87,73
2939,00;87,75
2938,00;87,76
2937,00;87,78
2936,00;87,81
2935,00;87,83
2934,00;87,85
2933,00;87,87
2932,00;87,88
2931,00;87,91
2930,00;87,93
2929,00;87,94
2928,00;87,96
2927,00;87,97
2926,00;87,98
2925,00;88,00
2924,00;88,02
2923,00;88,03
2922,00;88,04
2921,00;88,05
2920,00;88,05
2919,00;88,04
2918,00;88,03
2917,00;88,01
2916,00;87,99
2915,00;87,97
2914,00;87,96
2913,00;87,94
2912,00;87,92
2911,00;87,90
2910,00;87,89
2909,00;87,88
2908,00;87,87
2907,00;87,87
2906,00;87,86
2905,00;87,85
2904,00;87,85
2903,00;87,84
2902,00;87,84
2901,00;87,84
2900,00;87,84
2899,00;87,83
2898,00;87,83
2897,00;87,83
2896,00;87,83
2895,00;87,83
2894,00;87,83
2893,00;87,83
2892,00;87,82
2891,00;87,82
2890,00;87,81
2889,00;87,81
2888,00;87,80
2887,00;87,80
2886,00;87,80
2885,00;87,80
2884,00;87,80
2883,00;87,80
2882,00;87,80
2881,00;87,80
2880,00;87,79
2879,00;87,79
2878,00;87,79
2877,00;87,79
2876,00;87,80
2875,00;87,80
2874,00;87,80
2873,00;87,81
2872,00;87,81
2871,00;87,81
2870,00;87,81
2869,00;87,80
2868,00;87,80
2867,00;87,80
2866,00;87,80
2865,00;87,81
2864,00;87,83
2863,00;87,85
2862,00;87,88
2861,00;87,91
2860,00;87,94
2859,00;87,98
2858,00;88,01
2857,00;88,03
2856,00;88,05
2855,00;88,07
2854,00;88,07
2853,00;88,08
2852,00;88,07
2851,00;88,06
2850,00;88,05
2849,00;88,04
2848,00;88,03
2847,00;88,02
2846,00;88,00
2845,00;87,99
2844,00;87,97
2843,00;87,96
2842,00;87,95
2841,00;87,95
2840,00;87,95
2839,00;87,95
2838,00;87,95
2837,00;87,94
2836,00;87,94
2835,00;87,93
2834,00;87,93
2833,00;87,93
2832,00;87,92
2831,00;87,93
2830,00;87,93
2829,00;87,93
2828,00;87,93
2827,00;87,94
2826,00;87,94
2825,00;87,94
2824,00;87,94
2823,00;87,94
2822,00;87,94
2821,00;87,94
2820,00;87,94
2819,00;87,94
2818,00;87,94
2817,00;87,94
2816,00;87,94
2815,00;87,94
2814,00;87,95
2813,00;87,95
2812,00;87,96
2811,00;87,96
2810,00;87,96
2809,00;87,97
2808,00;87,97
2807,00;87,97
2806,00;87,97
2805,00;87,97
2804,00;87,97
2803,00;87,97
2802,00;87,98
2801,00;87,98
2800,00;87,99
2799,00;87,99
2798,00;88,00
2797,00;88,00
2796,00;87,99
2795,00;87,99
2794,00;87,99
2793,00;87,99
2792,00;88,00
2791,00;88,00
2790,00;88,00
2789,00;88,00
2788,00;88,01
2787,00;88,01
2786,00;88,01
2785,00;88,02
2784,00;88,02
2783,00;88,02
2782,00;88,02
2781,00;88,02
2780,00;88,02
2779,00;88,02
2778,00;88,02
2777,00;88,03
2776,00;88,03
2775,00;88,04
2774,00;88,05
2773,00;88,05
2772,00;88,05
2771,00;88,05
2770,00;88,05
2769,00;88,05
2768,00;88,06
2767,00;88,06
2766,00;88,06
2765,00;88,07
2764,00;88,07
2763,00;88,07
2762,00;88,07
2761,00;88,07
2760,00;88,07
2759,00;88,07
2758,00;88,08
2757,00;88,08
2756,00;88,09
2755,00;88,09
2754,00;88,10
2753,00;88,10
2752,00;88,10
2751,00;88,10
2750,00;88,10
2749,00;88,11
2748,00;88,11
2747,00;88,11
2746,00;88,11
2745,00;88,11
2744,00;88,12
2743,00;88,12
2742,00;88,12
2741,00;88,13
2740,00;88,13
2739,00;88,13
2738,00;88,14
2737,00;88,14
2736,00;88,14
2735,00;88,14
2734,00;88,14
2733,00;88,14
2732,00;88,15
2731,00;88,15
2730,00;88,16
2729,00;88,16
2728,00;88,17
2727,00;88,17
2726,00;88,17
2725,00;88,18
2724,00;88,18
2723,00;88,18
2722,00;88,18
2721,00;88,19
2720,00;88,19
2719,00;88,19
2718,00;88,19
2717,00;88,20
2716,00;88,20
2715,00;88,20
2714,00;88,21
2713,00;88,21
2712,00;88,21
2711,00;88,21
2710,00;88,21
2709,00;88,21
2708,00;88,21
2707,00;88,22
2706,00;88,22
2705,00;88,23
2704,00;88,23
2703,00;88,23
2702,00;88,24
2701,00;88,24
2700,00;88,25
2699,00;88,25
2698,00;88,25
2697,00;88,25
2696,00;88,25
2695,00;88,26
2694,00;88,26
2693,00;88,26
2692,00;88,26
2691,00;88,27
2690,00;88,27
2689,00;88,27
2688,00;88,27
2687,00;88,28
2686,00;88,28
2685,00;88,28
2684,00;88,29
2683,00;88,29
2682,00;88,29
2681,00;88,29
2680,00;88,30
2679,00;88,30
2678,00;88,31
2677,00;88,31
2676,00;88,31
2675,00;88,32
2674,00;88,32
2673,00;88,32
2672,00;88,32
2671,00;88,32
2670,00;88,32
2669,00;88,33
2668,00;88,33
2667,00;88,33
2666,00;88,33
2665,00;88,33
2664,00;88,32
2663,00;88,31
2662,00;88,31
2661,00;88,30
2660,00;88,29
2659,00;88,29
2658,00;88,29
2657,00;88,29
2656,00;88,29
2655,00;88,29
2654,00;88,29
2653,00;88,30
2652,00;88,30
2651,00;88,31
2650,00;88,31
2649,00;88,31
2648,00;88,32
2647,00;88,33
2646,00;88,34
2645,00;88,34
2644,00;88,35
2643,00;88,35
2642,00;88,36
2641,00;88,37
2640,00;88,37
2639,00;88,38
2638,00;88,39
2637,00;88,39
2636,00;88,40
2635,00;88,40
2634,00;88,41
2633,00;88,42
2632,00;88,42
2631,00;88,43
2630,00;88,43
2629,00;88,44
2628,00;88,45
2627,00;88,46
2626,00;88,47
2625,00;88,48
2624,00;88,48
2623,00;88,49
2622,00;88,50
2621,00;88,50
2620,00;88,51
2619,00;88,51
2618,00;88,52
2617,00;88,52
2616,00;88,53
2615,00;88,54
2614,00;88,54
2613,00;88,55
2612,00;88,56
2611,00;88,57
2610,00;88,58
2609,00;88,58
2608,00;88,59
2607,00;88,59
2606,00;88,59
2605,00;88,60
2604,00;88,61
2603,00;88,62
2602,00;88,62
2601,00;88,63
2600,00;88,63
2599,00;88,64
2598,00;88,64
2597,00;88,64
2596,00;88,65
2595,00;88,66
2594,00;88,66
2593,00;88,67
2592,00;88,68
2591,00;88,69
2590,00;88,70
2589,00;88,70
2588,00;88,70
2587,00;88,71
2586,00;88,71
2585,00;88,71
2584,00;88,71
2583,00;88,72
2582,00;88,73
2581,00;88,74
2580,00;88,75
2579,00;88,75
2578,00;88,76
2577,00;88,76
2576,00;88,77
2575,00;88,77
2574,00;88,78
2573,00;88,78
2572,00;88,79
2571,00;88,79
2570,00;88,79
2569,00;88,79
2568,00;88,80
2567,00;88,80
2566,00;88,80
2565,00;88,81
2564,00;88,81
2563,00;88,82
2562,00;88,83
2561,00;88,83
2560,00;88,84
2559,00;88,84
2558,00;88,85
2557,00;88,85
2556,00;88,86
2555,00;88,87
2554,00;88,87
2553,00;88,88
2552,00;88,88
2551,00;88,89
2550,00;88,89
2549,00;88,89
2548,00;88,90
2547,00;88,90
2546,00;88,90
2545,00;88,90
2544,00;88,90
2543,00;88,90
2542,00;88,91
2541,00;88,91
2540,00;88,92
2539,00;88,92
2538,00;88,93
2537,00;88,94
2536,00;88,94
2535,00;88,94
2534,00;88,95
2533,00;88,95
2532,00;88,96
2531,00;88,97
2530,00;88,97
2529,00;88,97
2528,00;88,97
2527,00;88,97
2526,00;88,97
2525,00;88,97
2524,00;88,98
2523,00;88,98
2522,00;88,99
2521,00;88,99
2520,00;89,00
2519,00;89,00
2518,00;89,00
2517,00;89,01
2516,00;89,01
2515,00;89,02
2514,00;89,03
2513,00;89,04
2512,00;89,04
2511,00;89,04
2510,00;89,04
2509,00;89,04
2508,00;89,04
2507,00;89,04
2506,00;89,04
2505,00;89,05
2504,00;89,06
2503,00;89,07
2502,00;89,07
2501,00;89,07
2500,00;89,07
2499,00;89,07
2498,00;89,07
2497,00;89,08
2496,00;89,08
2495,00;89,09
2494,00;89,10
2493,00;89,10
2492,00;89,10
2491,00;89,10
2490,00;89,11
2489,00;89,11
2488,00;89,11
2487,00;89,11
2486,00;89,11
2485,00;89,12
2484,00;89,12
2483,00;89,13
2482,00;89,13
2481,00;89,13
2480,00;89,13
2479,00;89,13
2478,00;89,14
2477,00;89,14
2476,00;89,15
2475,00;89,15
2474,00;89,16
2473,00;89,16
2472,00;89,16
2471,00;89,16
2470,00;89,16
2469,00;89,17
2468,00;89,17
2467,00;89,17
2466,00;89,17
2465,00;89,17
2464,00;89,18
2463,00;89,18
2462,00;89,18
2461,00;89,18
2460,00;89,18
2459,00;89,18
2458,00;89,18
2457,00;89,18
2456,00;89,18
2455,00;89,18
2454,00;89,18
2453,00;89,18
2452,00;89,19
2451,00;89,20
2450,00;89,20
2449,00;89,21
2448,00;89,21
2447,00;89,21
2446,00;89,21
2445,00;89,22
2444,00;89,22
2443,00;89,23
2442,00;89,24
2441,00;89,25
2440,00;89,25
2439,00;89,26
2438,00;89,26
2437,00;89,26
2436,00;89,27
2435,00;89,27
2434,00;89,28
2433,00;89,28
2432,00;89,29
2431,00;89,30
2430,00;89,30
2429,00;89,31
2428,00;89,31
2427,00;89,31
2426,00;89,32
2425,00;89,32
2424,00;89,33
2423,00;89,34
2422,00;89,34
2421,00;89,34
2420,00;89,35
2419,00;89,35
2418,00;89,36
2417,00;89,36
2416,00;89,36
2415,00;89,37
2414,00;89,37
2413,00;89,37
2412,00;89,36
2411,00;89,36
2410,00;89,37
2409,00;89,37
2408,00;89,38
2407,00;89,39
2406,00;89,40
2405,00;89,41
2404,00;89,42
2403,00;89,42
2402,00;89,42
2401,00;89,42
2400,00;89,43
2399,00;89,43
2398,00;89,43
2397,00;89,43
2396,00;89,44
2395,00;89,44
2394,00;89,44
2393,00;89,44
2392,00;89,44
2391,00;89,45
2390,00;89,45
2389,00;89,46
2388,00;89,46
2387,00;89,45
2386,00;89,45
2385,00;89,44
2384,00;89,44
2383,00;89,44
2382,00;89,44
2381,00;89,45
2380,00;89,46
2379,00;89,47
2378,00;89,49
2377,00;89,51
2376,00;89,53
2375,00;89,54
2374,00;89,54
2373,00;89,54
2372,00;89,54
2371,00;89,53
2370,00;89,52
2369,00;89,52
2368,00;89,51
2367,00;89,51
2366,00;89,52
2365,00;89,52
2364,00;89,52
2363,00;89,53
2362,00;89,55
2361,00;89,57
2360,00;89,60
2359,00;89,65
2358,00;89,71
2357,00;89,76
2356,00;89,80
2355,00;89,81
2354,00;89,79
2353,00;89,71
2352,00;89,63
2351,00;89,59
2350,00;89,60
2349,00;89,60
2348,00;89,54
2347,00;89,42
2346,00;89,30
2345,00;89,27
2344,00;89,33
2343,00;89,42
2342,00;89,49
2341,00;89,55
2340,00;89,59
2339,00;89,62
2338,00;89,64
2337,00;89,67
2336,00;89,69
2335,00;89,72
2334,00;89,74
2333,00;89,75
2332,00;89,75
2331,00;89,74
2330,00;89,75
2329,00;89,76
2328,00;89,76
2327,00;89,74
2326,00;89,68
2325,00;89,61
2324,00;89,56
2323,00;89,54
2322,00;89,57
2321,00;89,62
2320,00;89,66
2319,00;89,68
2318,00;89,70
2317,00;89,70
2316,00;89,69
2315,00;89,67
2314,00;89,65
2313,00;89,64
2312,00;89,63
2311,00;89,63
2310,00;89,63
2309,00;89,63
2308,00;89,63
2307,00;89,62
2306,00;89,62
2305,00;89,61
2304,00;89,61
2303,00;89,60
2302,00;89,59
2301,00;89,59
2300,00;89,59
2299,00;89,58
2298,00;89,58
2297,00;89,57
2296,00;89,57
2295,00;89,56
2294,00;89,56
2293,00;89,56
2292,00;89,55
2291,00;89,55
2290,00;89,54
2289,00;89,54
2288,00;89,53
2287,00;89,53
2286,00;89,53
2285,00;89,54
2284,00;89,55
2283,00;89,56
2282,00;89,57
2281,00;89,58
2280,00;89,59
2279,00;89,60
2278,00;89,61
2277,00;89,63
2276,00;89,64
2275,00;89,65
2274,00;89,66
2273,00;89,67
2272,00;89,69
2271,00;89,70
2270,00;89,71
2269,00;89,71
2268,00;89,70
2267,00;89,69
2266,00;89,69
2265,00;89,71
2264,00;89,73
2263,00;89,74
2262,00;89,75
2261,00;89,76
2260,00;89,76
2259,00;89,75
2258,00;89,75
2257,00;89,75
2256,00;89,76
2255,00;89,78
2254,00;89,80
2253,00;89,83
2252,00;89,84
2251,00;89,84
2250,00;89,85
2249,00;89,86
2248,00;89,86
2247,00;89,85
2246,00;89,84
2245,00;89,83
2244,00;89,84
2243,00;89,85
2242,00;89,86
2241,00;89,87
2240,00;89,87
2239,00;89,88
2238,00;89,88
2237,00;89,88
2236,00;89,88
2235,00;89,88
2234,00;89,88
2233,00;89,88
2232,00;89,88
2231,00;89,89
2230,00;89,89
2229,00;89,90
2228,00;89,91
2227,00;89,91
2226,00;89,92
2225,00;89,93
2224,00;89,93
2223,00;89,94
2222,00;89,94
2221,00;89,95
2220,00;89,96
2219,00;89,97
2218,00;89,97
2217,00;89,97
2216,00;89,98
2215,00;89,98
2214,00;89,99
2213,00;89,98
2212,00;89,97
2211,00;89,97
2210,00;89,97
2209,00;89,99
2208,00;90,01
2207,00;90,03
2206,00;90,04
2205,00;90,04
2204,00;90,02
2203,00;90,00
2202,00;89,99
2201,00;89,98
2200,00;89,98
2199,00;89,99
2198,00;90,00
2197,00;90,02
2196,00;90,03
2195,00;90,03
2194,00;90,02
2193,00;90,00
2192,00;89,98
2191,00;89,96
2190,00;89,95
2189,00;89,95
2188,00;89,95
2187,00;89,96
2186,00;89,96
2185,00;89,97
2184,00;90,00
2183,00;90,03
2182,00;90,08
2181,00;90,11
2180,00;90,13
2179,00;90,13
2178,00;90,12
2177,00;90,13
2176,00;90,16
2175,00;90,18
2174,00;90,21
2173,00;90,21
2172,00;90,19
2171,00;90,16
2170,00;90,13
2169,00;90,10
2168,00;90,08
2167,00;90,06
2166,00;90,04
2165,00;90,02
2164,00;89,99
2163,00;89,94
2162,00;89,91
2161,00;89,93
2160,00;90,03
2159,00;90,22
2158,00;90,45
2157,00;90,63
2156,00;90,71
2155,00;90,72
2154,00;90,69
2153,00;90,65
2152,00;90,61
2151,00;90,57
2150,00;90,53
2149,00;90,51
2148,00;90,51
2147,00;90,51
2146,00;90,52
2145,00;90,52
2144,00;90,51
2143,00;90,50
2142,00;90,51
2141,00;90,51
2140,00;90,50
2139,00;90,49
2138,00;90,48
2137,00;90,49
2136,00;90,52
2135,00;90,57
2134,00;90,61
2133,00;90,65
2132,00;90,66
2131,00;90,65
2130,00;90,61
2129,00;90,57
2128,00;90,52
2127,00;90,49
2126,00;90,48
2125,00;90,48
2124,00;90,49
2123,00;90,49
2122,00;90,47
2121,00;90,45
2120,00;90,43
2119,00;90,41
2118,00;90,40
2117,00;90,39
2116,00;90,38
2115,00;90,36
2114,00;90,35
2113,00;90,34
2112,00;90,34
2111,00;90,34
2110,00;90,35
2109,00;90,35
2108,00;90,36
2107,00;90,36
2106,00;90,37
2105,00;90,39
2104,00;90,39
2103,00;90,39
2102,00;90,39
2101,00;90,39
2100,00;90,39
2099,00;90,39
2098,00;90,39
2097,00;90,41
2096,00;90,43
2095,00;90,45
2094,00;90,47
2093,00;90,48
2092,00;90,48
2091,00;90,47
2090,00;90,47
2089,00;90,46
2088,00;90,45
2087,00;90,44
2086,00;90,43
2085,00;90,42
2084,00;90,42
2083,00;90,41
2082,00;90,41
2081,00;90,40
2080,00;90,40
2079,00;90,39
2078,00;90,40
2077,00;90,41
2076,00;90,42
2075,00;90,43
2074,00;90,42
2073,00;90,42
2072,00;90,42
2071,00;90,42
2070,00;90,42
2069,00;90,44
2068,00;90,47
2067,00;90,49
2066,00;90,50
2065,00;90,51
2064,00;90,50
2063,00;90,50
2062,00;90,49
2061,00;90,49
2060,00;90,49
2059,00;90,48
2058,00;90,47
2057,00;90,47
2056,00;90,47
2055,00;90,48
2054,00;90,48
2053,00;90,45
2052,00;90,38
2051,00;90,29
2050,00;90,25
2049,00;90,27
2048,00;90,35
2047,00;90,43
2046,00;90,49
2045,00;90,53
2044,00;90,56
2043,00;90,57
2042,00;90,57
2041,00;90,58
2040,00;90,57
2039,00;90,55
2038,00;90,53
2037,00;90,53
2036,00;90,54
2035,00;90,57
2034,00;90,60
2033,00;90,63
2032,00;90,65
2031,00;90,67
2030,00;90,69
2029,00;90,70
2028,00;90,72
2027,00;90,72
2026,00;90,73
2025,00;90,74
2024,00;90,75
2023,00;90,75
2022,00;90,74
2021,00;90,75
2020,00;90,76
2019,00;90,77
2018,00;90,79
2017,00;90,82
2016,00;90,85
2015,00;90,86
2014,00;90,86
2013,00;90,86
2012,00;90,85
2011,00;90,84
2010,00;90,83
2009,00;90,83
2008,00;90,87
2007,00;90,92
2006,00;90,96
2005,00;90,99
2004,00;90,99
2003,00;90,97
2002,00;90,94
2001,00;90,92
2000,00;90,91
1999,00;90,88
1998,00;90,87
1997,00;90,86
1996,00;90,85
1995,00;90,84
1994,00;90,82
1993,00;90,80
1992,00;90,79
1991,00;90,78
1990,00;90,78
1989,00;90,79
1988,00;90,79
1987,00;90,78
1986,00;90,77
1985,00;90,75
1984,00;90,73
1983,00;90,70
1982,00;90,67
1981,00;90,64
1980,00;90,62
1979,00;90,65
1978,00;90,73
1977,00;90,85
1976,00;90,95
1975,00;91,00
1974,00;91,01
1973,00;91,00
1972,00;91,01
1971,00;91,02
1970,00;91,03
1969,00;91,05
1968,00;91,06
1967,00;91,07
1966,00;91,07
1965,00;91,08
1964,00;91,08
1963,00;91,07
1962,00;91,07
1961,00;91,07
1960,00;91,09
1959,00;91,12
1958,00;91,13
1957,00;91,13
1956,00;91,11
1955,00;91,09
1954,00;91,07
1953,00;91,06
1952,00;91,06
1951,00;91,06
1950,00;91,06
1949,00;91,07
1948,00;91,08
1947,00;91,08
1946,00;91,08
1945,00;91,08
1944,00;91,09
1943,00;91,09
1942,00;91,10
1941,00;91,12
1940,00;91,12
1939,00;91,12
1938,00;91,11
1937,00;91,10
1936,00;91,09
1935,00;91,08
1934,00;91,09
1933,00;91,10
1932,00;91,10
1931,00;91,10
1930,00;91,10
1929,00;91,11
1928,00;91,12
1927,00;91,11
1926,00;91,11
1925,00;91,11
1924,00;91,10
1923,00;91,10
1922,00;91,09
1921,00;91,09
1920,00;91,09
1919,00;91,09
1918,00;91,10
1917,00;91,10
1916,00;91,10
1915,00;91,10
1914,00;91,10
1913,00;91,10
1912,00;91,10
1911,00;91,09
1910,00;91,09
1909,00;91,10
1908,00;91,11
1907,00;91,11
1906,00;91,12
1905,00;91,13
1904,00;91,13
1903,00;91,13
1902,00;91,13
1901,00;91,13
1900,00;91,14
1899,00;91,13
1898,00;91,13
1897,00;91,13
1896,00;91,14
1895,00;91,15
1894,00;91,15
1893,00;91,15
1892,00;91,14
1891,00;91,13
1890,00;91,13
1889,00;91,13
1888,00;91,13
1887,00;91,14
1886,00;91,14
1885,00;91,15
1884,00;91,16
1883,00;91,16
1882,00;91,16
1881,00;91,16
1880,00;91,17
1879,00;91,17
1878,00;91,17
1877,00;91,17
1876,00;91,17
1875,00;91,17
1874,00;91,17
1873,00;91,17
1872,00;91,18
1871,00;91,18
1870,00;91,18
1869,00;91,18
1868,00;91,20
1867,00;91,20
1866,00;91,21
1865,00;91,21
1864,00;91,21
1863,00;91,20
1862,00;91,20
1861,00;91,20
1860,00;91,21
1859,00;91,22
1858,00;91,22
1857,00;91,22
1856,00;91,22
1855,00;91,22
1854,00;91,21
1853,00;91,21
1852,00;91,22
1851,00;91,22
1850,00;91,23
1849,00;91,23
1848,00;91,23
1847,00;91,23
1846,00;91,24
1845,00;91,25
1844,00;91,26
1843,00;91,25
1842,00;91,25
1841,00;91,26
1840,00;91,27
1839,00;91,27
1838,00;91,26
1837,00;91,26
1836,00;91,26
1835,00;91,26
1834,00;91,26
1833,00;91,26
1832,00;91,26
1831,00;91,26
1830,00;91,26
1829,00;91,26
1828,00;91,27
1827,00;91,27
1826,00;91,28
1825,00;91,28
1824,00;91,28
1823,00;91,28
1822,00;91,28
1821,00;91,28
1820,00;91,29
1819,00;91,29
1818,00;91,30
1817,00;91,32
1816,00;91,33
1815,00;91,32
1814,00;91,31
1813,00;91,29
1812,00;91,29
1811,00;91,28
1810,00;91,28
1809,00;91,28
1808,00;91,29
1807,00;91,29
1806,00;91,28
1805,00;91,27
1804,00;91,27
1803,00;91,27
1802,00;91,26
1801,00;91,26
1800,00;91,27
1799,00;91,28
1798,00;91,27
1797,00;91,28
1796,00;91,28
1795,00;91,29
1794,00;91,28
1793,00;91,29
1792,00;91,30
1791,00;91,30
1790,00;91,30
1789,00;91,31
1788,00;91,31
1787,00;91,30
1786,00;91,29
1785,00;91,29
1784,00;91,29
1783,00;91,28
1782,00;91,28
1781,00;91,29
1780,00;91,29
1779,00;91,30
1778,00;91,30
1777,00;91,31
1776,00;91,31
1775,00;91,31
1774,00;91,31
1773,00;91,30
1772,00;91,30
1771,00;91,30
1770,00;91,31
1769,00;91,32
1768,00;91,33
1767,00;91,33
1766,00;91,31
1765,00;91,30
1764,00;91,31
1763,00;91,31
1762,00;91,31
1761,00;91,30
1760,00;91,29
1759,00;91,30
1758,00;91,30
1757,00;91,30
1756,00;91,30
1755,00;91,29
1754,00;91,29
1753,00;91,28
1752,00;91,27
1751,00;91,25
1750,00;91,25
1749,00;91,26
1748,00;91,28
1747,00;91,29
1746,00;91,29
1745,00;91,27
1744,00;91,26
1743,00;91,26
1742,00;91,25
1741,00;91,24
1740,00;91,23
1739,00;91,22
1738,00;91,21
1737,00;91,21
1736,00;91,22
1735,00;91,20
1734,00;91,19
1733,00;91,19
1732,00;91,19
1731,00;91,20
1730,00;91,23
1729,00;91,24
1728,00;91,23
1727,00;91,22
1726,00;91,21
1725,00;91,21
1724,00;91,22
1723,00;91,22
1722,00;91,23
1721,00;91,23
1720,00;91,24
1719,00;91,24
1718,00;91,23
1717,00;91,25
1716,00;91,28
1715,00;91,30
1714,00;91,32
1713,00;91,34
1712,00;91,35
1711,00;91,34
1710,00;91,33
1709,00;91,33
1708,00;91,33
1707,00;91,34
1706,00;91,34
1705,00;91,35
1704,00;91,37
1703,00;91,38
1702,00;91,40
1701,00;91,40
1700,00;91,40
1699,00;91,38
1698,00;91,37
1697,00;91,42
1696,00;91,46
1695,00;91,45
1694,00;91,41
1693,00;91,40
1692,00;91,42
1691,00;91,43
1690,00;91,43
1689,00;91,43
1688,00;91,44
1687,00;91,46
1686,00;91,46
1685,00;91,44
1684,00;91,45
1683,00;91,47
1682,00;91,48
1681,00;91,50
1680,00;91,52
1679,00;91,52
1678,00;91,53
1677,00;91,53
1676,00;91,52
1675,00;91,51
1674,00;91,50
1673,00;91,50
1672,00;91,51
1671,00;91,52
1670,00;91,53
1669,00;91,54
1668,00;91,54
1667,00;91,54
1666,00;91,54
1665,00;91,54
1664,00;91,53
1663,00;91,52
1662,00;91,52
1661,00;91,53
1660,00;91,53
1659,00;91,53
1658,00;91,53
1657,00;91,53
1656,00;91,54
1655,00;91,53
1654,00;91,52
1653,00;91,53
1652,00;91,52
1651,00;91,47
1650,00;91,47
1649,00;91,51
1648,00;91,53
1647,00;91,54
1646,00;91,55
1645,00;91,54
1644,00;91,53
1643,00;91,52
1642,00;91,53
1641,00;91,53
1640,00;91,52
1639,00;91,52
1638,00;91,52
1637,00;91,53
1636,00;91,55
1635,00;91,57
1634,00;91,56
1633,00;91,55
1632,00;91,56
1631,00;91,56
1630,00;91,56
1629,00;91,56
1628,00;91,55
1627,00;91,56
1626,00;91,56
1625,00;91,56
1624,00;91,56
1623,00;91,56
1622,00;91,56
1621,00;91,57
1620,00;91,58
1619,00;91,59
1618,00;91,59
1617,00;91,57
1616,00;91,56
1615,00;91,55
1614,00;91,57
1613,00;91,59
1612,00;91,59
1611,00;91,59
1610,00;91,59
1609,00;91,61
1608,00;91,62
1607,00;91,63
1606,00;91,65
1605,00;91,66
1604,00;91,67
1603,00;91,67
1602,00;91,69
1601,00;91,70
1600,00;91,70
1599,00;91,71
1598,00;91,72
1597,00;91,73
1596,00;91,74
1595,00;91,75
1594,00;91,76
1593,00;91,78
1592,00;91,78
1591,00;91,79
1590,00;91,80
1589,00;91,80
1588,00;91,81
1587,00;91,81
1586,00;91,81
1585,00;91,81
1584,00;91,81
1583,00;91,80
1582,00;91,81
1581,00;91,81
1580,00;91,80
1579,00;91,80
1578,00;91,80
1577,00;91,79
1576,00;91,77
1575,00;91,75
1574,00;91,75
1573,00;91,77
1572,00;91,78
1571,00;91,77
1570,00;91,76
1569,00;91,75
1568,00;91,74
1567,00;91,74
1566,00;91,75
1565,00;91,74
1564,00;91,73
1563,00;91,74
1562,00;91,76
1561,00;91,75
1560,00;91,68
1559,00;91,66
1558,00;91,72
1557,00;91,73
1556,00;91,73
1555,00;91,75
1554,00;91,75
1553,00;91,73
1552,00;91,72
1551,00;91,72
1550,00;91,73
1549,00;91,74
1548,00;91,74
1547,00;91,73
1546,00;91,73
1545,00;91,72
1544,00;91,72
1543,00;91,73
1542,00;91,74
1541,00;91,74
1540,00;91,75
1539,00;91,76
1538,00;91,74
1537,00;91,73
1536,00;91,74
1535,00;91,75
1534,00;91,75
1533,00;91,75
1532,00;91,76
1531,00;91,76
1530,00;91,76
1529,00;91,76
1528,00;91,77
1527,00;91,77
1526,00;91,78
1525,00;91,78
1524,00;91,79
1523,00;91,80
1522,00;91,80
1521,00;91,80
1520,00;91,80
1519,00;91,79
1518,00;91,79
1517,00;91,79
1516,00;91,80
1515,00;91,80
1514,00;91,80
1513,00;91,80
1512,00;91,79
1511,00;91,79
1510,00;91,79
1509,00;91,80
1508,00;91,81
1507,00;91,86
1506,00;91,90
1505,00;91,88
1504,00;91,85
1503,00;91,84
1502,00;91,85
1501,00;91,84
1500,00;91,83
1499,00;91,82
1498,00;91,81
1497,00;91,82
1496,00;91,85
1495,00;91,88
1494,00;91,90
1493,00;91,94
1492,00;91,97
1491,00;91,98
1490,00;91,99
1489,00;92,01
1488,00;92,02
1487,00;92,02
1486,00;92,01
1485,00;92,00
1484,00;91,99
1483,00;91,98
1482,00;91,97
1481,00;91,97
1480,00;91,97
1479,00;91,97
1478,00;91,96
1477,00;91,96
1476,00;91,96
1475,00;91,97
1474,00;91,98
1473,00;91,99
1472,00;92,00
1471,00;92,01
1470,00;92,00
1469,00;92,00
1468,00;92,00
1467,00;92,00
1466,00;91,99
1465,00;91,99
1464,00;91,99
1463,00;91,99
1462,00;91,99
1461,00;91,99
1460,00;92,00
1459,00;92,00
1458,00;91,99
1457,00;91,99
1456,00;92,00
1455,00;91,99
1454,00;92,00
1453,00;92,01
1452,00;92,03
1451,00;92,03
1450,00;92,04
1449,00;92,05
1448,00;92,06
1447,00;92,07
1446,00;92,07
1445,00;92,06
1444,00;92,05
1443,00;92,06
1442,00;92,06
1441,00;92,05
1440,00;92,06
1439,00;92,07
1438,00;92,08
1437,00;92,07
1436,00;92,07
1435,00;92,08
1434,00;92,08
1433,00;92,08
1432,00;92,08
1431,00;92,08
1430,00;92,08
1429,00;92,08
1428,00;92,09
1427,00;92,09
1426,00;92,09
1425,00;92,08
1424,00;92,09
1423,00;92,10
1422,00;92,11
1421,00;92,12
1420,00;92,11
1419,00;92,10
1418,00;92,10
1417,00;92,10
1416,00;92,11
1415,00;92,12
1414,00;92,13
1413,00;92,12
1412,00;92,11
1411,00;92,11
1410,00;92,11
1409,00;92,11
1408,00;92,11
1407,00;92,11
1406,00;92,12
1405,00;92,12
1404,00;92,13
1403,00;92,15
1402,00;92,16
1401,00;92,16
1400,00;92,16
1399,00;92,17
1398,00;92,18
1397,00;92,18
1396,00;92,19
1395,00;92,20
1394,00;92,20
1393,00;92,19
1392,00;92,18
1391,00;92,19
1390,00;92,20
1389,00;92,20
1388,00;92,19
1387,00;92,19
1386,00;92,20
1385,00;92,21
1384,00;92,21
1383,00;92,22
1382,00;92,22
1381,00;92,22
1380,00;92,22
1379,00;92,23
1378,00;92,23
1377,00;92,23
1376,00;92,23
1375,00;92,24
1374,00;92,25
1373,00;92,26
1372,00;92,26
1371,00;92,26
1370,00;92,26
1369,00;92,27
1368,00;92,27
1367,00;92,27
1366,00;92,28
1365,00;92,28
1364,00;92,28
1363,00;92,29
1362,00;92,30
1361,00;92,31
1360,00;92,31
1359,00;92,31
1358,00;92,31
1357,00;92,31
1356,00;92,32
1355,00;92,32
1354,00;92,32
1353,00;92,33
1352,00;92,33
1351,00;92,33
1350,00;92,33
1349,00;92,34
1348,00;92,34
1347,00;92,34
1346,00;92,34
1345,00;92,35
1344,00;92,35
1343,00;92,35
1342,00;92,36
1341,00;92,36
1340,00;92,36
1339,00;92,37
1338,00;92,38
1337,00;92,39
1336,00;92,39
1335,00;92,39
1334,00;92,40
1333,00;92,40
1332,00;92,41
1331,00;92,41
1330,00;92,42
1329,00;92,42
1328,00;92,42
1327,00;92,43
1326,00;92,43
1325,00;92,43
1324,00;92,43
1323,00;92,44
1322,00;92,45
1321,00;92,45
1320,00;92,46
1319,00;92,46
1318,00;92,47
1317,00;92,48
1316,00;92,48
1315,00;92,48
1314,00;92,48
1313,00;92,49
1312,00;92,49
1311,00;92,49
1310,00;92,50
1309,00;92,50
1308,00;92,51
1307,00;92,51
1306,00;92,52
1305,00;92,52
1304,00;92,52
1303,00;92,52
1302,00;92,52
1301,00;92,53
1300,00;92,53
1299,00;92,53
1298,00;92,54
1297,00;92,55
1296,00;92,55
1295,00;92,55
1294,00;92,56
1293,00;92,56
1292,00;92,57
1291,00;92,57
1290,00;92,58
1289,00;92,58
1288,00;92,59
1287,00;92,60
1286,00;92,61
1285,00;92,61
1284,00;92,62
1283,00;92,62
1282,00;92,63
1281,00;92,63
1280,00;92,64
1279,00;92,64
1278,00;92,65
1277,00;92,65
1276,00;92,65
1275,00;92,66
1274,00;92,66
1273,00;92,67
1272,00;92,67
1271,00;92,68
1270,00;92,68
1269,00;92,69
1268,00;92,69
1267,00;92,69
1266,00;92,70
1265,00;92,70
1264,00;92,71
1263,00;92,71
1262,00;92,72
1261,00;92,72
1260,00;92,72
1259,00;92,72
1258,00;92,73
1257,00;92,73
1256,00;92,72
1255,00;92,73
1254,00;92,73
1253,00;92,72
1252,00;92,72
1251,00;92,72
1250,00;92,72
1249,00;92,72
1248,00;92,72
1247,00;92,73
1246,00;92,73
1245,00;92,73
1244,00;92,73
1243,00;92,73
1242,00;92,73
1241,00;92,73
1240,00;92,74
1239,00;92,74
1238,00;92,74
1237,00;92,75
1236,00;92,74
1235,00;92,74
1234,00;92,74
1233,00;92,74
1232,00;92,75
1231,00;92,75
1230,00;92,75
1229,00;92,76
1228,00;92,76
1227,00;92,76
1226,00;92,76
1225,00;92,77
1224,00;92,77
1223,00;92,77
1222,00;92,78
1221,00;92,78
1220,00;92,79
1219,00;92,79
1218,00;92,80
1217,00;92,80
1216,00;92,81
1215,00;92,81
1214,00;92,82
1213,00;92,82
1212,00;92,82
1211,00;92,83
1210,00;92,83
1209,00;92,84
1208,00;92,84
1207,00;92,84
1206,00;92,84
1205,00;92,85
1204,00;92,85
1203,00;92,85
1202,00;92,86
1201,00;92,86
1200,00;92,87
1199,00;92,87
1198,00;92,87
1197,00;92,87
1196,00;92,87
1195,00;92,87
1194,00;92,88
1193,00;92,88
1192,00;92,88
1191,00;92,88
1190,00;92,88
1189,00;92,88
1188,00;92,88
1187,00;92,88
1186,00;92,89
1185,00;92,89
1184,00;92,89
1183,00;92,90
1182,00;92,90
1181,00;92,90
1180,00;92,91
1179,00;92,91
1178,00;92,92
1177,00;92,92
1176,00;92,93
1175,00;92,93
1174,00;92,93
1173,00;92,93
1172,00;92,93
1171,00;92,93
1170,00;92,93
1169,00;92,93
1168,00;92,94
1167,00;92,94
1166,00;92,94
1165,00;92,94
1164,00;92,94
1163,00;92,95
1162,00;92,95
1161,00;92,95
1160,00;92,95
1159,00;92,96
1158,00;92,96
1157,00;92,96
1156,00;92,96
1155,00;92,97
1154,00;92,97
1153,00;92,97
1152,00;92,98
1151,00;92,98
1150,00;92,98
1149,00;92,99
1148,00;92,99
1147,00;92,99
1146,00;93,00
1145,00;93,00
1144,00;93,00
1143,00;93,00
1142,00;93,00
1141,00;93,00
1140,00;93,00
1139,00;93,01
1138,00;93,01
1137,00;93,02
1136,00;93,03
1135,00;93,03
1134,00;93,03
1133,00;93,03
1132,00;93,03
1131,00;93,04
1130,00;93,04
1129,00;93,05
1128,00;93,05
1127,00;93,05
1126,00;93,06
1125,00;93,06
1124,00;93,06
1123,00;93,06
1122,00;93,07
1121,00;93,07
1120,00;93,07
1119,00;93,07
1118,00;93,08
1117,00;93,08
1116,00;93,09
1115,00;93,09
1114,00;93,10
1113,00;93,10
1112,00;93,10
1111,00;93,10
1110,00;93,10
1109,00;93,11
1108,00;93,11
1107,00;93,12
1106,00;93,12
1105,00;93,13
1104,00;93,13
1103,00;93,13
1102,00;93,13
1101,00;93,12
1100,00;93,12
1099,00;93,13
1098,00;93,13
1097,00;93,14
1096,00;93,14
1095,00;93,14
1094,00;93,14
1093,00;93,15
1092,00;93,15
1091,00;93,15
1090,00;93,15
1089,00;93,15
1088,00;93,16
1087,00;93,16
1086,00;93,16
1085,00;93,17
1084,00;93,18
1083,00;93,18
1082,00;93,19
1081,00;93,19
1080,00;93,19
1079,00;93,20
1078,00;93,20
1077,00;93,20
1076,00;93,21
1075,00;93,21
1074,00;93,22
1073,00;93,23
1072,00;93,23
1071,00;93,24
1070,00;93,24
1069,00;93,25
1068,00;93,25
1067,00;93,25
1066,00;93,26
1065,00;93,26
1064,00;93,27
1063,00;93,28
1062,00;93,28
1061,00;93,29
1060,00;93,29
1059,00;93,29
1058,00;93,30
1057,00;93,30
1056,00;93,30
1055,00;93,30
1054,00;93,30
1053,00;93,31
1052,00;93,32
1051,00;93,33
1050,00;93,35
1049,00;93,37
1048,00;93,38
1047,00;93,39
1046,00;93,40
1045,00;93,40
1044,00;93,40
1043,00;93,40
1042,00;93,41
1041,00;93,41
1040,00;93,42
1039,00;93,43
1038,00;93,43
1037,00;93,44
1036,00;93,44
1035,00;93,45
1034,00;93,45
1033,00;93,46
1032,00;93,46
1031,00;93,47
1030,00;93,47
1029,00;93,48
1028,00;93,48
1027,00;93,48
1026,00;93,49
1025,00;93,49
1024,00;93,49
1023,00;93,50
1022,00;93,50
1021,00;93,51
1020,00;93,52
1019,00;93,53
1018,00;93,54
1017,00;93,54
1016,00;93,55
1015,00;93,55
1014,00;93,56
1013,00;93,56
1012,00;93,57
1011,00;93,57
1010,00;93,58
1009,00;93,58
1008,00;93,59
1007,00;93,59
1006,00;93,60
1005,00;93,60
1004,00;93,61
1003,00;93,61
1002,00;93,62
1001,00;93,62
1000,00;93,63
999,00;93,64
998,00;93,65
997,00;93,66
996,00;93,66
995,00;93,66
994,00;93,67
993,00;93,67
992,00;93,68
991,00;93,68
990,00;93,69
989,00;93,69
988,00;93,69
987,00;93,70
986,00;93,70
985,00;93,71
984,00;93,72
983,00;93,72
982,00;93,73
981,00;93,73
980,00;93,74
979,00;93,74
978,00;93,75
977,00;93,75
976,00;93,76
975,00;93,76
974,00;93,77
973,00;93,78
972,00;93,78
971,00;93,78
970,00;93,79
969,00;93,79
968,00;93,80
967,00;93,80
966,00;93,81
965,00;93,81
964,00;93,82
963,00;93,83
962,00;93,84
961,00;93,84
960,00;93,84
959,00;93,85
958,00;93,85
957,00;93,86
956,00;93,86
955,00;93,87
954,00;93,88
953,00;93,88
952,00;93,89
951,00;93,89
950,00;93,90
949,00;93,91
948,00;93,91
947,00;93,92
946,00;93,92
945,00;93,93
944,00;93,93
943,00;93,94
942,00;93,94
941,00;93,94
940,00;93,94
939,00;93,95
938,00;93,96
937,00;93,96
936,00;93,97
935,00;93,97
934,00;93,98
933,00;93,98
932,00;93,98
931,00;93,99
930,00;94,00
929,00;94,00
928,00;94,01
927,00;94,01
926,00;94,01
925,00;94,02
924,00;94,02
923,00;94,03
922,00;94,04
921,00;94,04
920,00;94,04
919,00;94,05
918,00;94,05
917,00;94,05
916,00;94,06
915,00;94,06
914,00;94,07
913,00;94,08
912,00;94,08
911,00;94,08
910,00;94,09
909,00;94,09
908,00;94,09
907,00;94,10
906,00;94,10
905,00;94,10
904,00;94,11
903,00;94,12
902,00;94,12
901,00;94,12
900,00;94,13
899,00;94,13
898,00;94,13
897,00;94,14
896,00;94,14
895,00;94,14
894,00;94,14
893,00;94,15
892,00;94,15
891,00;94,16
890,00;94,16
889,00;94,17
888,00;94,17
887,00;94,17
886,00;94,17
885,00;94,18
884,00;94,18
883,00;94,18
882,00;94,19
881,00;94,19
880,00;94,20
879,00;94,20
878,00;94,21
877,00;94,22
876,00;94,22
875,00;94,23
874,00;94,23
873,00;94,23
872,00;94,23
871,00;94,24
870,00;94,24
869,00;94,24
868,00;94,24
867,00;94,25
866,00;94,25
865,00;94,26
864,00;94,26
863,00;94,27
862,00;94,28
861,00;94,28
860,00;94,28
859,00;94,28
858,00;94,29
857,00;94,29
856,00;94,30
855,00;94,30
854,00;94,31
853,00;94,31
852,00;94,31
851,00;94,31
850,00;94,32
849,00;94,32
848,00;94,32
847,00;94,32
846,00;94,33
845,00;94,34
844,00;94,34
843,00;94,35
842,00;94,35
841,00;94,35
840,00;94,36
839,00;94,36
838,00;94,37
837,00;94,38
836,00;94,38
835,00;94,38
834,00;94,39
833,00;94,39
832,00;94,39
831,00;94,40
830,00;94,41
829,00;94,41
828,00;94,41
827,00;94,42
826,00;94,42
825,00;94,44
824,00;94,45
823,00;94,46
822,00;94,47
821,00;94,47
820,00;94,48
819,00;94,48
818,00;94,48
817,00;94,49
816,00;94,49
815,00;94,49
814,00;94,49
813,00;94,49
812,00;94,50
811,00;94,50
810,00;94,51
809,00;94,51
808,00;94,51
807,00;94,52
806,00;94,52
805,00;94,53
804,00;94,53
803,00;94,53
802,00;94,54
801,00;94,54
800,00;94,55
799,00;94,56
798,00;94,56
797,00;94,56
796,00;94,57
795,00;94,57
794,00;94,57
793,00;94,58
792,00;94,58
791,00;94,59
790,00;94,59
789,00;94,59
788,00;94,60
787,00;94,60
786,00;94,61
785,00;94,61
784,00;94,61
783,00;94,62
782,00;94,63
781,00;94,63
780,00;94,64
779,00;94,64
778,00;94,65
777,00;94,66
776,00;94,66
775,00;94,67
774,00;94,67
773,00;94,67
772,00;94,68
771,00;94,68
770,00;94,69
769,00;94,69
768,00;94,70
767,00;94,70
766,00;94,71
765,00;94,71
764,00;94,72
763,00;94,72
762,00;94,73
761,00;94,73
760,00;94,73
759,00;94,74
758,00;94,74
757,00;94,75
756,00;94,76
755,00;94,76
754,00;94,77
753,00;94,78
752,00;94,78
751,00;94,78
750,00;94,79
749,00;94,79
748,00;94,80
747,00;94,80
746,00;94,81
745,00;94,81
744,00;94,82
743,00;94,82
742,00;94,83
741,00;94,83
740,00;94,84
739,00;94,84
738,00;94,85
737,00;94,85
736,00;94,86
735,00;94,86
734,00;94,87
733,00;94,88
732,00;94,88
731,00;94,89
730,00;94,89
729,00;94,89
728,00;94,90
727,00;94,90
726,00;94,90
725,00;94,91
724,00;94,91
723,00;94,92
722,00;94,92
721,00;94,93
720,00;94,94
719,00;94,94
718,00;94,94
717,00;94,95
716,00;94,95
715,00;94,96
714,00;94,97
713,00;94,97
712,00;94,98
711,00;94,99
710,00;94,99
709,00;95,00
708,00;95,01
707,00;95,01
706,00;95,02
705,00;95,02
704,00;95,02
703,00;95,03
702,00;95,03
701,00;95,04
700,00;95,04
699,00;95,04
698,00;95,05
697,00;95,05
696,00;95,06
695,00;95,07
694,00;95,07
693,00;95,07
692,00;95,08
691,00;95,08
690,00;95,09
689,00;95,09
688,00;95,10
687,00;95,10
686,00;95,10
685,00;95,11
684,00;95,11
683,00;95,11
682,00;95,11
681,00;95,12
680,00;95,12
679,00;95,13
678,00;95,14
677,00;95,15
676,00;95,15
675,00;95,16
674,00;95,16
673,00;95,16
672,00;95,17
671,00;95,21
670,00;95,29
669,00;95,36
668,00;95,40
667,00;95,37
666,00;95,30
665,00;95,24
664,00;95,22
663,00;95,22
662,00;95,22
661,00;95,23
660,00;95,23
659,00;95,24
658,00;95,25
657,00;95,26
656,00;95,26
655,00;95,27
654,00;95,28
653,00;95,28
652,00;95,29
651,00;95,29
650,00;95,30
649,00;95,31
648,00;95,31
647,00;95,32
646,00;95,32
645,00;95,33
644,00;95,33
643,00;95,34
642,00;95,35
641,00;95,35
640,00;95,36
639,00;95,36
638,00;95,37
637,00;95,38
636,00;95,39
635,00;95,39
634,00;95,40
633,00;95,40
632,00;95,41
631,00;95,41
630,00;95,42
629,00;95,42
628,00;95,43
627,00;95,43
626,00;95,44
625,00;95,44
624,00;95,45
623,00;95,45
622,00;95,46
621,00;95,46
620,00;95,47
619,00;95,48
618,00;95,48
617,00;95,49
616,00;95,50
615,00;95,50
614,00;95,51
613,00;95,51
612,00;95,52
611,00;95,53
610,00;95,54
609,00;95,55
608,00;95,55
607,00;95,56
606,00;95,56
605,00;95,57
604,00;95,57
603,00;95,58
602,00;95,58
601,00;95,59
600,00;95,60
599,00;95,60
598,00;95,61
597,00;95,61
596,00;95,62
595,00;95,62
594,00;95,63
593,00;95,64
592,00;95,65
591,00;95,65
590,00;95,67
589,00;95,67
588,00;95,68
587,00;95,68
586,00;95,68
585,00;95,68
584,00;95,68
583,00;95,69
582,00;95,70
581,00;95,71
580,00;95,72
579,00;95,73
578,00;95,73
577,00;95,73
576,00;95,73
575,00;95,73
574,00;95,74
573,00;95,75
572,00;95,76
571,00;95,76
570,00;95,76
569,00;95,76
568,00;95,76
567,00;95,77
566,00;95,78
565,00;95,79
564,00;95,80
563,00;95,81
562,00;95,82
561,00;95,82
560,00;95,82
559,00;95,82
558,00;95,83
557,00;95,83
556,00;95,83
555,00;95,84
554,00;95,84
553,00;95,85
552,00;95,85
551,00;95,86
550,00;95,87
549,00;95,87
548,00;95,88
547,00;95,88
546,00;95,89
545,00;95,89
544,00;95,89
543,00;95,90
542,00;95,91
541,00;95,91
540,00;95,92
539,00;95,92
538,00;95,93
537,00;95,94
536,00;95,95
535,00;95,95
534,00;95,96
533,00;95,96
532,00;95,96
531,00;95,97
530,00;95,97
529,00;95,98
528,00;95,98
527,00;95,99
526,00;95,99
525,00;95,99
524,00;95,99
523,00;95,98
522,00;95,98
521,00;95,98
520,00;95,99
519,00;95,99
518,00;96,00
517,00;96,01
516,00;96,01
515,00;96,02
514,00;96,03
513,00;96,03
512,00;96,03
511,00;96,04
510,00;96,04
509,00;96,05
508,00;96,06
507,00;96,06
506,00;96,07
505,00;96,08
504,00;96,09
503,00;96,10
502,00;96,11
501,00;96,11
500,00;96,12
499,00;96,11
498,00;96,11
497,00;96,12
496,00;96,13
495,00;96,13
494,00;96,14
493,00;96,14
492,00;96,14
491,00;96,15
490,00;96,16
489,00;96,16
488,00;96,16
487,00;96,16
486,00;96,17
485,00;96,17
484,00;96,17
483,00;96,18
482,00;96,19
481,00;96,20
480,00;96,20
479,00;96,21
478,00;96,21
477,00;96,22
476,00;96,22
475,00;96,22
474,00;96,24
473,00;96,26
472,00;96,27
471,00;96,27
470,00;96,27
469,00;96,27
468,00;96,26
467,00;96,26
466,00;96,26
465,00;96,27
464,00;96,28
463,00;96,29
462,00;96,29
461,00;96,29
460,00;96,29
459,00;96,30
458,00;96,31
457,00;96,33
456,00;96,34
455,00;96,36
454,00;96,37
453,00;96,37
452,00;96,38
451,00;96,38
450,00;96,40
