Created as New Dataset;Sample 1001 By Administrator Date fredag, september 22 2017
cm-1;%T
4000,00;85,57
3999,00;85,56
3998,00;85,55
3997,00;85,55
3996,00;85,54
3995,00;85,54
3994,00;85,53
3993,00;85,51
3992,00;85,51
3991,00;85,52
3990,00;85,53
3989,00;85,53
3988,00;85,54
3987,00;85,54
3986,00;85,54
3985,00;85,54
3984,00;85,53
3983,00;85,52
3982,00;85,52
3981,00;85,52
3980,00;85,51
3979,00;85,51
3978,00;85,50
3977,00;85,49
3976,00;85,49
3975,00;85,48
3974,00;85,47
3973,00;85,47
3972,00;85,46
3971,00;85,46
3970,00;85,47
3969,00;85,48
3968,00;85,49
3967,00;85,50
3966,00;85,49
3965,00;85,48
3964,00;85,46
3963,00;85,45
3962,00;85,45
3961,00;85,45
3960,00;85,45
3959,00;85,45
3958,00;85,45
3957,00;85,46
3956,00;85,46
3955,00;85,44
3954,00;85,41
3953,00;85,37
3952,00;85,32
3951,00;85,26
3950,00;85,24
3949,00;85,24
3948,00;85,27
3947,00;85,28
3946,00;85,27
3945,00;85,26
3944,00;85,27
3943,00;85,30
3942,00;85,34
3941,00;85,35
3940,00;85,37
3939,00;85,40
3938,00;85,44
3937,00;85,44
3936,00;85,37
3935,00;85,27
3934,00;85,18
3933,00;85,15
3932,00;85,16
3931,00;85,20
3930,00;85,23
3929,00;85,24
3928,00;85,22
3927,00;85,18
3926,00;85,16
3925,00;85,17
3924,00;85,17
3923,00;85,13
3922,00;85,08
3921,00;85,06
3920,00;85,05
3919,00;85,05
3918,00;85,09
3917,00;85,18
3916,00;85,29
3915,00;85,37
3914,00;85,42
3913,00;85,47
3912,00;85,50
3911,00;85,50
3910,00;85,43
3909,00;85,30
3908,00;85,10
3907,00;84,86
3906,00;84,62
3905,00;84,43
3904,00;84,32
3903,00;84,27
3902,00;84,29
3901,00;84,43
3900,00;84,69
3899,00;84,97
3898,00;85,16
3897,00;85,23
3896,00;85,22
3895,00;85,16
3894,00;85,03
3893,00;84,91
3892,00;84,88
3891,00;84,92
3890,00;84,91
3889,00;84,79
3888,00;84,69
3887,00;84,72
3886,00;84,83
3885,00;84,89
3884,00;84,80
3883,00;84,65
3882,00;84,63
3881,00;84,78
3880,00;84,96
3879,00;85,03
3878,00;84,97
3877,00;84,91
3876,00;84,90
3875,00;84,89
3874,00;84,75
3873,00;84,48
3872,00;84,21
3871,00;84,14
3870,00;84,30
3869,00;84,46
3868,00;84,44
3867,00;84,38
3866,00;84,45
3865,00;84,61
3864,00;84,70
3863,00;84,72
3862,00;84,76
3861,00;84,85
3860,00;84,94
3859,00;84,90
3858,00;84,68
3857,00;84,25
3856,00;83,69
3855,00;83,21
3854,00;83,12
3853,00;83,50
3852,00;83,90
3851,00;84,10
3850,00;84,40
3849,00;84,85
3848,00;85,16
3847,00;85,22
3846,00;85,11
3845,00;84,93
3844,00;84,75
3843,00;84,54
3842,00;84,29
3841,00;84,03
3840,00;83,85
3839,00;83,80
3838,00;83,86
3837,00;83,97
3836,00;84,07
3835,00;84,19
3834,00;84,36
3833,00;84,58
3832,00;84,78
3831,00;84,89
3830,00;84,90
3829,00;84,88
3828,00;84,88
3827,00;84,91
3826,00;84,85
3825,00;84,62
3824,00;84,29
3823,00;84,03
3822,00;83,97
3821,00;84,08
3820,00;84,11
3819,00;83,96
3818,00;83,91
3817,00;84,15
3816,00;84,50
3815,00;84,75
3814,00;84,82
3813,00;84,89
3812,00;85,05
3811,00;85,13
3810,00;85,01
3809,00;84,77
3808,00;84,61
3807,00;84,60
3806,00;84,55
3805,00;84,32
3804,00;84,08
3803,00;84,01
3802,00;84,13
3801,00;84,28
3800,00;84,28
3799,00;84,21
3798,00;84,33
3797,00;84,64
3796,00;84,92
3795,00;85,06
3794,00;85,11
3793,00;85,18
3792,00;85,28
3791,00;85,35
3790,00;85,34
3789,00;85,28
3788,00;85,21
3787,00;85,13
3786,00;85,09
3785,00;85,07
3784,00;85,03
3783,00;84,94
3782,00;84,84
3781,00;84,81
3780,00;84,85
3779,00;84,94
3778,00;85,00
3777,00;85,05
3776,00;85,12
3775,00;85,20
3774,00;85,19
3773,00;85,06
3772,00;84,88
3771,00;84,76
3770,00;84,73
3769,00;84,71
3768,00;84,67
3767,00;84,70
3766,00;84,83
3765,00;84,98
3764,00;85,01
3763,00;84,92
3762,00;84,80
3761,00;84,72
3760,00;84,66
3759,00;84,61
3758,00;84,56
3757,00;84,51
3756,00;84,40
3755,00;84,20
3754,00;83,91
3753,00;83,58
3752,00;83,32
3751,00;83,25
3750,00;83,37
3749,00;83,46
3748,00;83,41
3747,00;83,33
3746,00;83,37
3745,00;83,64
3744,00;84,05
3743,00;84,28
3742,00;84,28
3741,00;84,35
3740,00;84,46
3739,00;84,35
3738,00;84,01
3737,00;83,67
3736,00;83,52
3735,00;83,54
3734,00;83,68
3733,00;83,92
3732,00;84,24
3731,00;84,53
3730,00;84,67
3729,00;84,71
3728,00;84,75
3727,00;84,78
3726,00;84,76
3725,00;84,70
3724,00;84,65
3723,00;84,68
3722,00;84,76
3721,00;84,82
3720,00;84,88
3719,00;84,94
3718,00;85,01
3717,00;85,01
3716,00;84,89
3715,00;84,65
3714,00;84,38
3713,00;84,16
3712,00;84,05
3711,00;84,09
3710,00;84,22
3709,00;84,40
3708,00;84,64
3707,00;84,88
3706,00;85,03
3705,00;85,04
3704,00;84,98
3703,00;84,91
3702,00;84,91
3701,00;84,96
3700,00;85,01
3699,00;85,05
3698,00;85,13
3697,00;85,21
3696,00;85,21
3695,00;85,08
3694,00;84,86
3693,00;84,59
3692,00;84,29
3691,00;84,02
3690,00;83,89
3689,00;83,98
3688,00;84,21
3687,00;84,44
3686,00;84,67
3685,00;84,93
3684,00;85,16
3683,00;85,24
3682,00;85,17
3681,00;84,99
3680,00;84,75
3679,00;84,39
3678,00;83,93
3677,00;83,59
3676,00;83,56
3675,00;83,77
3674,00;83,85
3673,00;83,76
3672,00;83,83
3671,00;84,08
3670,00;84,35
3669,00;84,55
3668,00;84,66
3667,00;84,80
3666,00;85,06
3665,00;85,29
3664,00;85,39
3663,00;85,39
3662,00;85,34
3661,00;85,25
3660,00;85,10
3659,00;84,90
3658,00;84,75
3657,00;84,72
3656,00;84,77
3655,00;84,74
3654,00;84,55
3653,00;84,27
3652,00;83,97
3651,00;83,65
3650,00;83,45
3649,00;83,47
3648,00;83,69
3647,00;83,98
3646,00;84,32
3645,00;84,65
3644,00;84,93
3643,00;85,12
3642,00;85,20
3641,00;85,18
3640,00;85,13
3639,00;85,09
3638,00;85,05
3637,00;84,99
3636,00;84,91
3635,00;84,85
3634,00;84,77
3633,00;84,58
3632,00;84,25
3631,00;83,91
3630,00;83,77
3629,00;83,94
3628,00;84,26
3627,00;84,48
3626,00;84,64
3625,00;84,87
3624,00;85,03
3623,00;84,95
3622,00;84,72
3621,00;84,47
3620,00;84,33
3619,00;84,32
3618,00;84,34
3617,00;84,34
3616,00;84,34
3615,00;84,38
3614,00;84,42
3613,00;84,43
3612,00;84,38
3611,00;84,33
3610,00;84,36
3609,00;84,48
3608,00;84,66
3607,00;84,80
3606,00;84,88
3605,00;84,93
3604,00;84,95
3603,00;84,93
3602,00;84,88
3601,00;84,81
3600,00;84,75
3599,00;84,68
3598,00;84,62
3597,00;84,59
3596,00;84,60
3595,00;84,65
3594,00;84,71
3593,00;84,75
3592,00;84,72
3591,00;84,62
3590,00;84,48
3589,00;84,39
3588,00;84,40
3587,00;84,52
3586,00;84,66
3585,00;84,77
3584,00;84,89
3583,00;85,00
3582,00;85,06
3581,00;85,06
3580,00;85,04
3579,00;85,01
3578,00;84,99
3577,00;84,97
3576,00;84,96
3575,00;84,97
3574,00;84,97
3573,00;84,95
3572,00;84,87
3571,00;84,72
3570,00;84,51
3569,00;84,31
3568,00;84,21
3567,00;84,26
3566,00;84,39
3565,00;84,50
3564,00;84,61
3563,00;84,73
3562,00;84,83
3561,00;84,90
3560,00;84,93
3559,00;84,96
3558,00;84,98
3557,00;84,98
3556,00;84,95
3555,00;84,90
3554,00;84,86
3553,00;84,84
3552,00;84,83
3551,00;84,80
3550,00;84,76
3549,00;84,71
3548,00;84,68
3547,00;84,67
3546,00;84,69
3545,00;84,74
3544,00;84,80
3543,00;84,86
3542,00;84,92
3541,00;84,96
3540,00;84,97
3539,00;84,96
3538,00;84,95
3537,00;84,94
3536,00;84,94
3535,00;84,94
3534,00;84,94
3533,00;84,92
3532,00;84,89
3531,00;84,85
3530,00;84,79
3529,00;84,74
3528,00;84,71
3527,00;84,69
3526,00;84,67
3525,00;84,69
3524,00;84,73
3523,00;84,78
3522,00;84,83
3521,00;84,86
3520,00;84,88
3519,00;84,91
3518,00;84,93
3517,00;84,94
3516,00;84,95
3515,00;84,94
3514,00;84,93
3513,00;84,90
3512,00;84,86
3511,00;84,83
3510,00;84,81
3509,00;84,82
3508,00;84,82
3507,00;84,81
3506,00;84,79
3505,00;84,77
3504,00;84,76
3503,00;84,76
3502,00;84,77
3501,00;84,80
3500,00;84,84
3499,00;84,87
3498,00;84,90
3497,00;84,91
3496,00;84,91
3495,00;84,91
3494,00;84,90
3493,00;84,91
3492,00;84,90
3491,00;84,90
3490,00;84,89
3489,00;84,88
3488,00;84,87
3487,00;84,87
3486,00;84,87
3485,00;84,86
3484,00;84,84
3483,00;84,84
3482,00;84,84
3481,00;84,85
3480,00;84,86
3479,00;84,87
3478,00;84,89
3477,00;84,90
3476,00;84,91
3475,00;84,91
3474,00;84,91
3473,00;84,91
3472,00;84,90
3471,00;84,90
3470,00;84,90
3469,00;84,89
3468,00;84,89
3467,00;84,88
3466,00;84,88
3465,00;84,87
3464,00;84,86
3463,00;84,86
3462,00;84,85
3461,00;84,85
3460,00;84,85
3459,00;84,85
3458,00;84,87
3457,00;84,88
3456,00;84,89
3455,00;84,89
3454,00;84,89
3453,00;84,88
3452,00;84,87
3451,00;84,85
3450,00;84,81
3449,00;84,77
3448,00;84,74
3447,00;84,73
3446,00;84,73
3445,00;84,74
3444,00;84,76
3443,00;84,78
3442,00;84,81
3441,00;84,82
3440,00;84,83
3439,00;84,83
3438,00;84,84
3437,00;84,85
3436,00;84,85
3435,00;84,84
3434,00;84,84
3433,00;84,83
3432,00;84,83
3431,00;84,83
3430,00;84,82
3429,00;84,82
3428,00;84,81
3427,00;84,81
3426,00;84,80
3425,00;84,79
3424,00;84,78
3423,00;84,76
3422,00;84,74
3421,00;84,73
3420,00;84,73
3419,00;84,74
3418,00;84,75
3417,00;84,77
3416,00;84,79
3415,00;84,79
3414,00;84,79
3413,00;84,79
3412,00;84,78
3411,00;84,77
3410,00;84,77
3409,00;84,77
3408,00;84,76
3407,00;84,76
3406,00;84,76
3405,00;84,75
3404,00;84,75
3403,00;84,75
3402,00;84,74
3401,00;84,73
3400,00;84,72
3399,00;84,72
3398,00;84,71
3397,00;84,71
3396,00;84,70
3395,00;84,69
3394,00;84,69
3393,00;84,69
3392,00;84,69
3391,00;84,69
3390,00;84,70
3389,00;84,70
3388,00;84,70
3387,00;84,69
3386,00;84,69
3385,00;84,68
3384,00;84,68
3383,00;84,68
3382,00;84,68
3381,00;84,69
3380,00;84,69
3379,00;84,69
3378,00;84,69
3377,00;84,68
3376,00;84,68
3375,00;84,68
3374,00;84,68
3373,00;84,68
3372,00;84,67
3371,00;84,66
3370,00;84,66
3369,00;84,65
3368,00;84,64
3367,00;84,63
3366,00;84,63
3365,00;84,63
3364,00;84,62
3363,00;84,62
3362,00;84,63
3361,00;84,63
3360,00;84,63
3359,00;84,62
3358,00;84,62
3357,00;84,61
3356,00;84,61
3355,00;84,61
3354,00;84,62
3353,00;84,62
3352,00;84,62
3351,00;84,62
3350,00;84,62
3349,00;84,62
3348,00;84,62
3347,00;84,62
3346,00;84,61
3345,00;84,61
3344,00;84,61
3343,00;84,61
3342,00;84,61
3341,00;84,61
3340,00;84,60
3339,00;84,59
3338,00;84,58
3337,00;84,57
3336,00;84,57
3335,00;84,56
3334,00;84,56
3333,00;84,57
3332,00;84,57
3331,00;84,56
3330,00;84,56
3329,00;84,56
3328,00;84,56
3327,00;84,56
3326,00;84,56
3325,00;84,56
3324,00;84,56
3323,00;84,56
3322,00;84,56
3321,00;84,56
3320,00;84,56
3319,00;84,56
3318,00;84,56
3317,00;84,56
3316,00;84,55
3315,00;84,54
3314,00;84,54
3313,00;84,53
3312,00;84,53
3311,00;84,52
3310,00;84,51
3309,00;84,51
3308,00;84,52
3307,00;84,52
3306,00;84,53
3305,00;84,53
3304,00;84,53
3303,00;84,53
3302,00;84,53
3301,00;84,52
3300,00;84,52
3299,00;84,52
3298,00;84,51
3297,00;84,51
3296,00;84,51
3295,00;84,50
3294,00;84,50
3293,00;84,50
3292,00;84,49
3291,00;84,49
3290,00;84,49
3289,00;84,50
3288,00;84,50
3287,00;84,50
3286,00;84,49
3285,00;84,49
3284,00;84,49
3283,00;84,49
3282,00;84,48
3281,00;84,48
3280,00;84,47
3279,00;84,46
3278,00;84,46
3277,00;84,45
3276,00;84,45
3275,00;84,45
3274,00;84,45
3273,00;84,45
3272,00;84,46
3271,00;84,47
3270,00;84,47
3269,00;84,47
3268,00;84,47
3267,00;84,46
3266,00;84,46
3265,00;84,45
3264,00;84,45
3263,00;84,46
3262,00;84,46
3261,00;84,45
3260,00;84,45
3259,00;84,44
3258,00;84,44
3257,00;84,43
3256,00;84,43
3255,00;84,43
3254,00;84,43
3253,00;84,42
3252,00;84,42
3251,00;84,43
3250,00;84,44
3249,00;84,44
3248,00;84,43
3247,00;84,42
3246,00;84,42
3245,00;84,41
3244,00;84,41
3243,00;84,41
3242,00;84,41
3241,00;84,41
3240,00;84,42
3239,00;84,42
3238,00;84,42
3237,00;84,42
3236,00;84,42
3235,00;84,42
3234,00;84,41
3233,00;84,41
3232,00;84,40
3231,00;84,40
3230,00;84,39
3229,00;84,39
3228,00;84,38
3227,00;84,39
3226,00;84,39
3225,00;84,39
3224,00;84,38
3223,00;84,37
3222,00;84,37
3221,00;84,36
3220,00;84,35
3219,00;84,35
3218,00;84,35
3217,00;84,35
3216,00;84,35
3215,00;84,35
3214,00;84,34
3213,00;84,34
3212,00;84,33
3211,00;84,33
3210,00;84,33
3209,00;84,34
3208,00;84,35
3207,00;84,36
3206,00;84,36
3205,00;84,36
3204,00;84,36
3203,00;84,35
3202,00;84,35
3201,00;84,34
3200,00;84,33
3199,00;84,32
3198,00;84,31
3197,00;84,30
3196,00;84,29
3195,00;84,29
3194,00;84,29
3193,00;84,30
3192,00;84,30
3191,00;84,31
3190,00;84,31
3189,00;84,31
3188,00;84,30
3187,00;84,29
3186,00;84,29
3185,00;84,28
3184,00;84,27
3183,00;84,27
3182,00;84,26
3181,00;84,26
3180,00;84,25
3179,00;84,24
3178,00;84,24
3177,00;84,24
3176,00;84,24
3175,00;84,25
3174,00;84,25
3173,00;84,26
3172,00;84,25
3171,00;84,25
3170,00;84,24
3169,00;84,24
3168,00;84,24
3167,00;84,23
3166,00;84,23
3165,00;84,23
3164,00;84,22
3163,00;84,21
3162,00;84,21
3161,00;84,20
3160,00;84,20
3159,00;84,20
3158,00;84,20
3157,00;84,19
3156,00;84,19
3155,00;84,19
3154,00;84,19
3153,00;84,19
3152,00;84,19
3151,00;84,19
3150,00;84,18
3149,00;84,17
3148,00;84,16
3147,00;84,16
3146,00;84,16
3145,00;84,16
3144,00;84,16
3143,00;84,16
3142,00;84,15
3141,00;84,15
3140,00;84,15
3139,00;84,15
3138,00;84,15
3137,00;84,14
3136,00;84,13
3135,00;84,12
3134,00;84,11
3133,00;84,10
3132,00;84,10
3131,00;84,10
3130,00;84,11
3129,00;84,11
3128,00;84,10
3127,00;84,09
3126,00;84,08
3125,00;84,07
3124,00;84,06
3123,00;84,06
3122,00;84,06
3121,00;84,07
3120,00;84,07
3119,00;84,07
3118,00;84,07
3117,00;84,07
3116,00;84,07
3115,00;84,06
3114,00;84,05
3113,00;84,05
3112,00;84,05
3111,00;84,05
3110,00;84,06
3109,00;84,06
3108,00;84,06
3107,00;84,05
3106,00;84,04
3105,00;84,03
3104,00;84,02
3103,00;84,02
3102,00;84,01
3101,00;84,01
3100,00;84,01
3099,00;84,01
3098,00;84,00
3097,00;84,00
3096,00;84,00
3095,00;83,99
3094,00;83,99
3093,00;84,00
3092,00;84,01
3091,00;84,02
3090,00;84,02
3089,00;84,02
3088,00;84,02
3087,00;84,01
3086,00;84,01
3085,00;84,01
3084,00;84,01
3083,00;84,00
3082,00;83,98
3081,00;83,97
3080,00;83,96
3079,00;83,96
3078,00;83,96
3077,00;83,97
3076,00;83,97
3075,00;83,98
3074,00;83,98
3073,00;83,97
3072,00;83,97
3071,00;83,96
3070,00;83,95
3069,00;83,95
3068,00;83,94
3067,00;83,93
3066,00;83,92
3065,00;83,91
3064,00;83,91
3063,00;83,91
3062,00;83,92
3061,00;83,92
3060,00;83,92
3059,00;83,92
3058,00;83,91
3057,00;83,91
3056,00;83,91
3055,00;83,92
3054,00;83,92
3053,00;83,93
3052,00;83,93
3051,00;83,92
3050,00;83,92
3049,00;83,92
3048,00;83,92
3047,00;83,92
3046,00;83,93
3045,00;83,93
3044,00;83,92
3043,00;83,91
3042,00;83,90
3041,00;83,90
3040,00;83,89
3039,00;83,89
3038,00;83,89
3037,00;83,88
3036,00;83,88
3035,00;83,87
3034,00;83,86
3033,00;83,85
3032,00;83,84
3031,00;83,84
3030,00;83,85
3029,00;83,85
3028,00;83,85
3027,00;83,85
3026,00;83,84
3025,00;83,84
3024,00;83,83
3023,00;83,83
3022,00;83,84
3021,00;83,84
3020,00;83,84
3019,00;83,85
3018,00;83,85
3017,00;83,86
3016,00;83,86
3015,00;83,86
3014,00;83,87
3013,00;83,87
3012,00;83,86
3011,00;83,86
3010,00;83,85
3009,00;83,85
3008,00;83,84
3007,00;83,84
3006,00;83,83
3005,00;83,82
3004,00;83,81
3003,00;83,80
3002,00;83,79
3001,00;83,79
3000,00;83,79
2999,00;83,79
2998,00;83,78
2997,00;83,77
2996,00;83,76
2995,00;83,75
2994,00;83,74
2993,00;83,74
2992,00;83,73
2991,00;83,72
2990,00;83,71
2989,00;83,70
2988,00;83,69
2987,00;83,69
2986,00;83,68
2985,00;83,68
2984,00;83,67
2983,00;83,67
2982,00;83,67
2981,00;83,67
2980,00;83,66
2979,00;83,66
2978,00;83,65
2977,00;83,65
2976,00;83,64
2975,00;83,63
2974,00;83,63
2973,00;83,62
2972,00;83,62
2971,00;83,62
2970,00;83,62
2969,00;83,63
2968,00;83,63
2967,00;83,64
2966,00;83,66
2965,00;83,67
2964,00;83,68
2963,00;83,68
2962,00;83,69
2961,00;83,69
2960,00;83,70
2959,00;83,71
2958,00;83,72
2957,00;83,72
2956,00;83,72
2955,00;83,72
2954,00;83,72
2953,00;83,71
2952,00;83,71
2951,00;83,71
2950,00;83,70
2949,00;83,70
2948,00;83,69
2947,00;83,69
2946,00;83,69
2945,00;83,68
2944,00;83,68
2943,00;83,68
2942,00;83,68
2941,00;83,68
2940,00;83,69
2939,00;83,70
2938,00;83,72
2937,00;83,74
2936,00;83,76
2935,00;83,79
2934,00;83,81
2933,00;83,83
2932,00;83,85
2931,00;83,87
2930,00;83,89
2929,00;83,91
2928,00;83,92
2927,00;83,93
2926,00;83,94
2925,00;83,96
2924,00;83,98
2923,00;83,99
2922,00;84,00
2921,00;84,00
2920,00;84,00
2919,00;83,98
2918,00;83,96
2917,00;83,94
2916,00;83,91
2915,00;83,88
2914,00;83,85
2913,00;83,82
2912,00;83,79
2911,00;83,76
2910,00;83,74
2909,00;83,72
2908,00;83,71
2907,00;83,69
2906,00;83,68
2905,00;83,67
2904,00;83,66
2903,00;83,65
2902,00;83,64
2901,00;83,63
2900,00;83,62
2899,00;83,61
2898,00;83,60
2897,00;83,60
2896,00;83,59
2895,00;83,59
2894,00;83,58
2893,00;83,57
2892,00;83,56
2891,00;83,55
2890,00;83,54
2889,00;83,52
2888,00;83,51
2887,00;83,50
2886,00;83,50
2885,00;83,49
2884,00;83,49
2883,00;83,48
2882,00;83,47
2881,00;83,47
2880,00;83,46
2879,00;83,45
2878,00;83,45
2877,00;83,44
2876,00;83,44
2875,00;83,44
2874,00;83,44
2873,00;83,44
2872,00;83,44
2871,00;83,44
2870,00;83,43
2869,00;83,42
2868,00;83,41
2867,00;83,40
2866,00;83,40
2865,00;83,41
2864,00;83,43
2863,00;83,45
2862,00;83,48
2861,00;83,51
2860,00;83,55
2859,00;83,59
2858,00;83,63
2857,00;83,66
2856,00;83,68
2855,00;83,69
2854,00;83,70
2853,00;83,69
2852,00;83,68
2851,00;83,66
2850,00;83,64
2849,00;83,62
2848,00;83,60
2847,00;83,58
2846,00;83,56
2845,00;83,53
2844,00;83,51
2843,00;83,49
2842,00;83,47
2841,00;83,46
2840,00;83,46
2839,00;83,45
2838,00;83,44
2837,00;83,43
2836,00;83,42
2835,00;83,41
2834,00;83,39
2833,00;83,39
2832,00;83,38
2831,00;83,38
2830,00;83,37
2829,00;83,37
2828,00;83,37
2827,00;83,37
2826,00;83,36
2825,00;83,36
2824,00;83,36
2823,00;83,35
2822,00;83,35
2821,00;83,34
2820,00;83,33
2819,00;83,33
2818,00;83,32
2817,00;83,32
2816,00;83,32
2815,00;83,31
2814,00;83,31
2813,00;83,31
2812,00;83,31
2811,00;83,31
2810,00;83,31
2809,00;83,31
2808,00;83,31
2807,00;83,31
2806,00;83,30
2805,00;83,30
2804,00;83,29
2803,00;83,29
2802,00;83,29
2801,00;83,29
2800,00;83,29
2799,00;83,30
2798,00;83,29
2797,00;83,29
2796,00;83,28
2795,00;83,27
2794,00;83,27
2793,00;83,26
2792,00;83,26
2791,00;83,26
2790,00;83,26
2789,00;83,25
2788,00;83,25
2787,00;83,25
2786,00;83,25
2785,00;83,25
2784,00;83,25
2783,00;83,24
2782,00;83,24
2781,00;83,23
2780,00;83,23
2779,00;83,22
2778,00;83,22
2777,00;83,22
2776,00;83,22
2775,00;83,23
2774,00;83,23
2773,00;83,23
2772,00;83,22
2771,00;83,22
2770,00;83,21
2769,00;83,21
2768,00;83,21
2767,00;83,21
2766,00;83,21
2765,00;83,21
2764,00;83,20
2763,00;83,20
2762,00;83,19
2761,00;83,19
2760,00;83,19
2759,00;83,19
2758,00;83,19
2757,00;83,19
2756,00;83,19
2755,00;83,19
2754,00;83,19
2753,00;83,18
2752,00;83,18
2751,00;83,18
2750,00;83,17
2749,00;83,18
2748,00;83,18
2747,00;83,17
2746,00;83,17
2745,00;83,16
2744,00;83,16
2743,00;83,16
2742,00;83,16
2741,00;83,16
2740,00;83,15
2739,00;83,15
2738,00;83,15
2737,00;83,15
2736,00;83,15
2735,00;83,15
2734,00;83,14
2733,00;83,14
2732,00;83,13
2731,00;83,13
2730,00;83,13
2729,00;83,14
2728,00;83,14
2727,00;83,14
2726,00;83,14
2725,00;83,13
2724,00;83,13
2723,00;83,13
2722,00;83,13
2721,00;83,13
2720,00;83,12
2719,00;83,12
2718,00;83,12
2717,00;83,12
2716,00;83,12
2715,00;83,12
2714,00;83,12
2713,00;83,11
2712,00;83,11
2711,00;83,10
2710,00;83,10
2709,00;83,09
2708,00;83,09
2707,00;83,09
2706,00;83,09
2705,00;83,09
2704,00;83,09
2703,00;83,09
2702,00;83,09
2701,00;83,09
2700,00;83,09
2699,00;83,09
2698,00;83,08
2697,00;83,08
2696,00;83,08
2695,00;83,08
2694,00;83,08
2693,00;83,07
2692,00;83,07
2691,00;83,07
2690,00;83,06
2689,00;83,06
2688,00;83,06
2687,00;83,06
2686,00;83,06
2685,00;83,06
2684,00;83,05
2683,00;83,05
2682,00;83,05
2681,00;83,05
2680,00;83,05
2679,00;83,05
2678,00;83,05
2677,00;83,05
2676,00;83,05
2675,00;83,04
2674,00;83,04
2673,00;83,04
2672,00;83,03
2671,00;83,03
2670,00;83,03
2669,00;83,02
2668,00;83,02
2667,00;83,02
2666,00;83,01
2665,00;83,00
2664,00;82,99
2663,00;82,97
2662,00;82,96
2661,00;82,94
2660,00;82,93
2659,00;82,92
2658,00;82,91
2657,00;82,90
2656,00;82,90
2655,00;82,89
2654,00;82,89
2653,00;82,89
2652,00;82,89
2651,00;82,89
2650,00;82,89
2649,00;82,89
2648,00;82,89
2647,00;82,90
2646,00;82,90
2645,00;82,91
2644,00;82,91
2643,00;82,91
2642,00;82,91
2641,00;82,92
2640,00;82,92
2639,00;82,93
2638,00;82,93
2637,00;82,93
2636,00;82,94
2635,00;82,94
2634,00;82,94
2633,00;82,94
2632,00;82,94
2631,00;82,95
2630,00;82,95
2629,00;82,95
2628,00;82,96
2627,00;82,97
2626,00;82,98
2625,00;82,98
2624,00;82,98
2623,00;82,99
2622,00;82,99
2621,00;82,99
2620,00;83,00
2619,00;83,00
2618,00;83,00
2617,00;83,00
2616,00;83,01
2615,00;83,01
2614,00;83,01
2613,00;83,02
2612,00;83,03
2611,00;83,03
2610,00;83,04
2609,00;83,04
2608,00;83,04
2607,00;83,03
2606,00;83,03
2605,00;83,04
2604,00;83,04
2603,00;83,05
2602,00;83,05
2601,00;83,06
2600,00;83,06
2599,00;83,06
2598,00;83,06
2597,00;83,06
2596,00;83,06
2595,00;83,06
2594,00;83,07
2593,00;83,07
2592,00;83,08
2591,00;83,08
2590,00;83,09
2589,00;83,09
2588,00;83,09
2587,00;83,09
2586,00;83,08
2585,00;83,08
2584,00;83,08
2583,00;83,08
2582,00;83,09
2581,00;83,10
2580,00;83,10
2579,00;83,10
2578,00;83,10
2577,00;83,10
2576,00;83,11
2575,00;83,11
2574,00;83,11
2573,00;83,12
2572,00;83,11
2571,00;83,11
2570,00;83,11
2569,00;83,10
2568,00;83,10
2567,00;83,10
2566,00;83,10
2565,00;83,10
2564,00;83,10
2563,00;83,11
2562,00;83,11
2561,00;83,11
2560,00;83,11
2559,00;83,11
2558,00;83,12
2557,00;83,12
2556,00;83,13
2555,00;83,13
2554,00;83,13
2553,00;83,13
2552,00;83,13
2551,00;83,13
2550,00;83,13
2549,00;83,13
2548,00;83,13
2547,00;83,13
2546,00;83,12
2545,00;83,11
2544,00;83,11
2543,00;83,11
2542,00;83,11
2541,00;83,11
2540,00;83,11
2539,00;83,12
2538,00;83,12
2537,00;83,12
2536,00;83,12
2535,00;83,12
2534,00;83,12
2533,00;83,12
2532,00;83,13
2531,00;83,13
2530,00;83,13
2529,00;83,12
2528,00;83,12
2527,00;83,11
2526,00;83,10
2525,00;83,10
2524,00;83,10
2523,00;83,10
2522,00;83,11
2521,00;83,11
2520,00;83,11
2519,00;83,11
2518,00;83,11
2517,00;83,10
2516,00;83,11
2515,00;83,12
2514,00;83,13
2513,00;83,13
2512,00;83,13
2511,00;83,12
2510,00;83,11
2509,00;83,10
2508,00;83,10
2507,00;83,09
2506,00;83,09
2505,00;83,09
2504,00;83,10
2503,00;83,11
2502,00;83,11
2501,00;83,11
2500,00;83,10
2499,00;83,09
2498,00;83,08
2497,00;83,08
2496,00;83,09
2495,00;83,10
2494,00;83,10
2493,00;83,10
2492,00;83,09
2491,00;83,09
2490,00;83,09
2489,00;83,08
2488,00;83,07
2487,00;83,07
2486,00;83,07
2485,00;83,07
2484,00;83,07
2483,00;83,08
2482,00;83,07
2481,00;83,07
2480,00;83,06
2479,00;83,06
2478,00;83,06
2477,00;83,06
2476,00;83,07
2475,00;83,07
2474,00;83,07
2473,00;83,07
2472,00;83,06
2471,00;83,06
2470,00;83,05
2469,00;83,05
2468,00;83,04
2467,00;83,04
2466,00;83,04
2465,00;83,03
2464,00;83,03
2463,00;83,03
2462,00;83,02
2461,00;83,02
2460,00;83,01
2459,00;83,00
2458,00;83,00
2457,00;82,99
2456,00;82,98
2455,00;82,97
2454,00;82,97
2453,00;82,97
2452,00;82,97
2451,00;82,98
2450,00;82,98
2449,00;82,98
2448,00;82,98
2447,00;82,98
2446,00;82,98
2445,00;82,98
2444,00;82,98
2443,00;82,98
2442,00;82,98
2441,00;82,99
2440,00;82,99
2439,00;83,00
2438,00;82,99
2437,00;82,99
2436,00;82,99
2435,00;82,99
2434,00;82,99
2433,00;83,00
2432,00;83,00
2431,00;83,01
2430,00;83,01
2429,00;83,01
2428,00;83,01
2427,00;83,01
2426,00;83,01
2425,00;83,01
2424,00;83,01
2423,00;83,01
2422,00;83,01
2421,00;83,01
2420,00;83,01
2419,00;83,01
2418,00;83,01
2417,00;83,01
2416,00;83,01
2415,00;83,01
2414,00;83,00
2413,00;83,00
2412,00;82,99
2411,00;82,98
2410,00;82,98
2409,00;82,98
2408,00;82,99
2407,00;83,00
2406,00;83,01
2405,00;83,01
2404,00;83,02
2403,00;83,01
2402,00;83,01
2401,00;83,01
2400,00;83,01
2399,00;83,00
2398,00;83,00
2397,00;83,00
2396,00;82,99
2395,00;82,99
2394,00;82,99
2393,00;82,98
2392,00;82,98
2391,00;82,98
2390,00;82,98
2389,00;82,98
2388,00;82,97
2387,00;82,96
2386,00;82,95
2385,00;82,93
2384,00;82,92
2383,00;82,92
2382,00;82,91
2381,00;82,92
2380,00;82,93
2379,00;82,94
2378,00;82,96
2377,00;82,98
2376,00;83,00
2375,00;83,02
2374,00;83,02
2373,00;83,01
2372,00;83,00
2371,00;82,98
2370,00;82,96
2369,00;82,95
2368,00;82,93
2367,00;82,93
2366,00;82,92
2365,00;82,92
2364,00;82,92
2363,00;82,93
2362,00;82,95
2361,00;82,98
2360,00;83,02
2359,00;83,09
2358,00;83,17
2357,00;83,24
2356,00;83,30
2355,00;83,32
2354,00;83,27
2353,00;83,15
2352,00;83,01
2351,00;82,94
2350,00;82,95
2349,00;82,95
2348,00;82,85
2347,00;82,64
2346,00;82,45
2345,00;82,40
2344,00;82,48
2343,00;82,61
2342,00;82,73
2341,00;82,82
2340,00;82,87
2339,00;82,91
2338,00;82,94
2337,00;82,97
2336,00;83,01
2335,00;83,04
2334,00;83,07
2333,00;83,07
2332,00;83,06
2331,00;83,05
2330,00;83,05
2329,00;83,06
2328,00;83,06
2327,00;83,02
2326,00;82,93
2325,00;82,81
2324,00;82,71
2323,00;82,68
2322,00;82,72
2321,00;82,78
2320,00;82,84
2319,00;82,88
2318,00;82,89
2317,00;82,89
2316,00;82,87
2315,00;82,83
2314,00;82,79
2313,00;82,76
2312,00;82,74
2311,00;82,74
2310,00;82,73
2309,00;82,73
2308,00;82,71
2307,00;82,70
2306,00;82,68
2305,00;82,67
2304,00;82,65
2303,00;82,63
2302,00;82,62
2301,00;82,60
2300,00;82,59
2299,00;82,58
2298,00;82,56
2297,00;82,55
2296,00;82,53
2295,00;82,52
2294,00;82,51
2293,00;82,50
2292,00;82,48
2291,00;82,47
2290,00;82,45
2289,00;82,43
2288,00;82,42
2287,00;82,41
2286,00;82,40
2285,00;82,41
2284,00;82,42
2283,00;82,44
2282,00;82,45
2281,00;82,46
2280,00;82,46
2279,00;82,47
2278,00;82,48
2277,00;82,50
2276,00;82,51
2275,00;82,52
2274,00;82,53
2273,00;82,55
2272,00;82,56
2271,00;82,58
2270,00;82,58
2269,00;82,57
2268,00;82,55
2267,00;82,53
2266,00;82,53
2265,00;82,55
2264,00;82,57
2263,00;82,59
2262,00;82,60
2261,00;82,60
2260,00;82,59
2259,00;82,58
2258,00;82,56
2257,00;82,56
2256,00;82,57
2255,00;82,59
2254,00;82,63
2253,00;82,66
2252,00;82,67
2251,00;82,67
2250,00;82,67
2249,00;82,68
2248,00;82,68
2247,00;82,66
2246,00;82,63
2245,00;82,61
2244,00;82,61
2243,00;82,62
2242,00;82,63
2241,00;82,64
2240,00;82,64
2239,00;82,64
2238,00;82,64
2237,00;82,63
2236,00;82,62
2235,00;82,61
2234,00;82,60
2233,00;82,60
2232,00;82,60
2231,00;82,60
2230,00;82,60
2229,00;82,61
2228,00;82,61
2227,00;82,61
2226,00;82,62
2225,00;82,62
2224,00;82,63
2223,00;82,63
2222,00;82,63
2221,00;82,63
2220,00;82,64
2219,00;82,65
2218,00;82,65
2217,00;82,65
2216,00;82,65
2215,00;82,65
2214,00;82,64
2213,00;82,63
2212,00;82,61
2211,00;82,59
2210,00;82,59
2209,00;82,61
2208,00;82,64
2207,00;82,67
2206,00;82,68
2205,00;82,66
2204,00;82,63
2203,00;82,59
2202,00;82,56
2201,00;82,55
2200,00;82,54
2199,00;82,54
2198,00;82,55
2197,00;82,57
2196,00;82,59
2195,00;82,58
2194,00;82,56
2193,00;82,52
2192,00;82,47
2191,00;82,43
2190,00;82,41
2189,00;82,40
2188,00;82,40
2187,00;82,40
2186,00;82,40
2185,00;82,41
2184,00;82,45
2183,00;82,50
2182,00;82,56
2181,00;82,62
2180,00;82,64
2179,00;82,63
2178,00;82,62
2177,00;82,62
2176,00;82,66
2175,00;82,70
2174,00;82,72
2173,00;82,72
2172,00;82,69
2171,00;82,63
2170,00;82,56
2169,00;82,51
2168,00;82,47
2167,00;82,43
2166,00;82,39
2165,00;82,35
2164,00;82,28
2163,00;82,20
2162,00;82,14
2161,00;82,16
2160,00;82,33
2159,00;82,65
2158,00;83,02
2157,00;83,31
2156,00;83,45
2155,00;83,46
2154,00;83,40
2153,00;83,33
2152,00;83,26
2151,00;83,17
2150,00;83,10
2149,00;83,05
2148,00;83,05
2147,00;83,05
2146,00;83,05
2145,00;83,04
2144,00;83,02
2143,00;83,01
2142,00;83,00
2141,00;83,00
2140,00;82,99
2139,00;82,96
2138,00;82,94
2137,00;82,94
2136,00;82,99
2135,00;83,06
2134,00;83,13
2133,00;83,19
2132,00;83,20
2131,00;83,17
2130,00;83,10
2129,00;83,01
2128,00;82,93
2127,00;82,87
2126,00;82,84
2125,00;82,83
2124,00;82,84
2123,00;82,83
2122,00;82,80
2121,00;82,76
2120,00;82,71
2119,00;82,67
2118,00;82,64
2117,00;82,63
2116,00;82,60
2115,00;82,56
2114,00;82,53
2113,00;82,50
2112,00;82,49
2111,00;82,49
2110,00;82,49
2109,00;82,49
2108,00;82,49
2107,00;82,50
2106,00;82,51
2105,00;82,52
2104,00;82,53
2103,00;82,52
2102,00;82,52
2101,00;82,51
2100,00;82,49
2099,00;82,49
2098,00;82,49
2097,00;82,50
2096,00;82,53
2095,00;82,56
2094,00;82,59
2093,00;82,60
2092,00;82,59
2091,00;82,57
2090,00;82,55
2089,00;82,53
2088,00;82,51
2087,00;82,49
2086,00;82,46
2085,00;82,44
2084,00;82,42
2083,00;82,40
2082,00;82,38
2081,00;82,37
2080,00;82,35
2079,00;82,34
2078,00;82,34
2077,00;82,35
2076,00;82,36
2075,00;82,37
2074,00;82,36
2073,00;82,34
2072,00;82,33
2071,00;82,32
2070,00;82,32
2069,00;82,35
2068,00;82,38
2067,00;82,41
2066,00;82,43
2065,00;82,43
2064,00;82,42
2063,00;82,40
2062,00;82,38
2061,00;82,37
2060,00;82,36
2059,00;82,34
2058,00;82,31
2057,00;82,30
2056,00;82,29
2055,00;82,30
2054,00;82,29
2053,00;82,23
2052,00;82,10
2051,00;81,94
2050,00;81,86
2049,00;81,90
2048,00;82,02
2047,00;82,15
2046,00;82,25
2045,00;82,32
2044,00;82,36
2043,00;82,37
2042,00;82,37
2041,00;82,37
2040,00;82,35
2039,00;82,31
2038,00;82,27
2037,00;82,25
2036,00;82,27
2035,00;82,30
2034,00;82,35
2033,00;82,40
2032,00;82,43
2031,00;82,46
2030,00;82,48
2029,00;82,50
2028,00;82,51
2027,00;82,51
2026,00;82,52
2025,00;82,54
2024,00;82,55
2023,00;82,54
2022,00;82,52
2021,00;82,51
2020,00;82,52
2019,00;82,54
2018,00;82,57
2017,00;82,62
2016,00;82,66
2015,00;82,67
2014,00;82,66
2013,00;82,65
2012,00;82,63
2011,00;82,60
2010,00;82,58
2009,00;82,58
2008,00;82,63
2007,00;82,71
2006,00;82,79
2005,00;82,84
2004,00;82,83
2003,00;82,77
2002,00;82,72
2001,00;82,68
2000,00;82,64
1999,00;82,59
1998,00;82,55
1997,00;82,52
1996,00;82,51
1995,00;82,48
1994,00;82,44
1993,00;82,40
1992,00;82,36
1991,00;82,34
1990,00;82,33
1989,00;82,34
1988,00;82,34
1987,00;82,31
1986,00;82,28
1985,00;82,24
1984,00;82,19
1983,00;82,13
1982,00;82,06
1981,00;82,00
1980,00;81,96
1979,00;82,00
1978,00;82,14
1977,00;82,35
1976,00;82,53
1975,00;82,61
1974,00;82,62
1973,00;82,61
1972,00;82,60
1971,00;82,61
1970,00;82,64
1969,00;82,66
1968,00;82,67
1967,00;82,67
1966,00;82,67
1965,00;82,68
1964,00;82,68
1963,00;82,65
1962,00;82,63
1961,00;82,64
1960,00;82,66
1959,00;82,70
1958,00;82,72
1957,00;82,71
1956,00;82,67
1955,00;82,62
1954,00;82,58
1953,00;82,55
1952,00;82,53
1951,00;82,52
1950,00;82,52
1949,00;82,54
1948,00;82,54
1947,00;82,53
1946,00;82,52
1945,00;82,52
1944,00;82,52
1943,00;82,53
1942,00;82,54
1941,00;82,55
1940,00;82,56
1939,00;82,54
1938,00;82,52
1937,00;82,49
1936,00;82,46
1935,00;82,44
1934,00;82,44
1933,00;82,45
1932,00;82,45
1931,00;82,44
1930,00;82,44
1929,00;82,44
1928,00;82,44
1927,00;82,43
1926,00;82,42
1925,00;82,41
1924,00;82,39
1923,00;82,37
1922,00;82,35
1921,00;82,34
1920,00;82,33
1919,00;82,33
1918,00;82,32
1917,00;82,33
1916,00;82,33
1915,00;82,31
1914,00;82,30
1913,00;82,29
1912,00;82,27
1911,00;82,26
1910,00;82,25
1909,00;82,25
1908,00;82,26
1907,00;82,26
1906,00;82,27
1905,00;82,28
1904,00;82,28
1903,00;82,27
1902,00;82,26
1901,00;82,26
1900,00;82,25
1899,00;82,23
1898,00;82,22
1897,00;82,22
1896,00;82,23
1895,00;82,23
1894,00;82,23
1893,00;82,22
1892,00;82,20
1891,00;82,17
1890,00;82,15
1889,00;82,14
1888,00;82,14
1887,00;82,14
1886,00;82,14
1885,00;82,15
1884,00;82,16
1883,00;82,15
1882,00;82,14
1881,00;82,14
1880,00;82,14
1879,00;82,13
1878,00;82,12
1877,00;82,12
1876,00;82,12
1875,00;82,10
1874,00;82,09
1873,00;82,09
1872,00;82,09
1871,00;82,09
1870,00;82,08
1869,00;82,08
1868,00;82,09
1867,00;82,09
1866,00;82,09
1865,00;82,09
1864,00;82,08
1863,00;82,05
1862,00;82,04
1861,00;82,04
1860,00;82,05
1859,00;82,05
1858,00;82,04
1857,00;82,04
1856,00;82,04
1855,00;82,02
1854,00;81,99
1853,00;81,99
1852,00;82,00
1851,00;82,00
1850,00;82,00
1849,00;82,00
1848,00;81,99
1847,00;81,98
1846,00;81,98
1845,00;82,00
1844,00;82,00
1843,00;81,98
1842,00;81,97
1841,00;81,98
1840,00;81,99
1839,00;81,98
1838,00;81,95
1837,00;81,94
1836,00;81,94
1835,00;81,93
1834,00;81,92
1833,00;81,91
1832,00;81,90
1831,00;81,89
1830,00;81,88
1829,00;81,87
1828,00;81,87
1827,00;81,88
1826,00;81,88
1825,00;81,87
1824,00;81,87
1823,00;81,85
1822,00;81,84
1821,00;81,84
1820,00;81,84
1819,00;81,85
1818,00;81,86
1817,00;81,88
1816,00;81,90
1815,00;81,87
1814,00;81,83
1813,00;81,79
1812,00;81,77
1811,00;81,76
1810,00;81,74
1809,00;81,74
1808,00;81,74
1807,00;81,72
1806,00;81,70
1805,00;81,68
1804,00;81,67
1803,00;81,65
1802,00;81,63
1801,00;81,62
1800,00;81,63
1799,00;81,63
1798,00;81,62
1797,00;81,61
1796,00;81,61
1795,00;81,61
1794,00;81,60
1793,00;81,60
1792,00;81,61
1791,00;81,61
1790,00;81,60
1789,00;81,60
1788,00;81,60
1787,00;81,57
1786,00;81,54
1785,00;81,52
1784,00;81,52
1783,00;81,50
1782,00;81,49
1781,00;81,49
1780,00;81,49
1779,00;81,49
1778,00;81,49
1777,00;81,49
1776,00;81,48
1775,00;81,48
1774,00;81,47
1773,00;81,45
1772,00;81,42
1771,00;81,42
1770,00;81,43
1769,00;81,45
1768,00;81,46
1767,00;81,43
1766,00;81,39
1765,00;81,37
1764,00;81,37
1763,00;81,37
1762,00;81,35
1761,00;81,32
1760,00;81,30
1759,00;81,30
1758,00;81,30
1757,00;81,29
1756,00;81,27
1755,00;81,25
1754,00;81,23
1753,00;81,21
1752,00;81,17
1751,00;81,13
1750,00;81,13
1749,00;81,14
1748,00;81,15
1747,00;81,16
1746,00;81,15
1745,00;81,12
1744,00;81,08
1743,00;81,06
1742,00;81,04
1741,00;81,01
1740,00;80,98
1739,00;80,95
1738,00;80,92
1737,00;80,91
1736,00;80,91
1735,00;80,88
1734,00;80,84
1733,00;80,83
1732,00;80,81
1731,00;80,84
1730,00;80,88
1729,00;80,89
1728,00;80,87
1727,00;80,83
1726,00;80,80
1725,00;80,79
1724,00;80,79
1723,00;80,79
1722,00;80,79
1721,00;80,80
1720,00;80,81
1719,00;80,79
1718,00;80,76
1717,00;80,78
1716,00;80,83
1715,00;80,87
1714,00;80,90
1713,00;80,93
1712,00;80,94
1711,00;80,92
1710,00;80,89
1709,00;80,88
1708,00;80,87
1707,00;80,87
1706,00;80,87
1705,00;80,89
1704,00;80,91
1703,00;80,93
1702,00;80,95
1701,00;80,94
1700,00;80,93
1699,00;80,87
1698,00;80,86
1697,00;80,94
1696,00;81,02
1695,00;80,99
1694,00;80,88
1693,00;80,85
1692,00;80,88
1691,00;80,90
1690,00;80,88
1689,00;80,87
1688,00;80,89
1687,00;80,92
1686,00;80,91
1685,00;80,86
1684,00;80,86
1683,00;80,89
1682,00;80,91
1681,00;80,95
1680,00;80,97
1679,00;80,98
1678,00;80,97
1677,00;80,96
1676,00;80,94
1675,00;80,91
1674,00;80,89
1673,00;80,86
1672,00;80,87
1671,00;80,88
1670,00;80,90
1669,00;80,92
1668,00;80,90
1667,00;80,89
1666,00;80,88
1665,00;80,87
1664,00;80,84
1663,00;80,80
1662,00;80,80
1661,00;80,80
1660,00;80,79
1659,00;80,78
1658,00;80,78
1657,00;80,77
1656,00;80,76
1655,00;80,75
1654,00;80,71
1653,00;80,73
1652,00;80,68
1651,00;80,56
1650,00;80,57
1649,00;80,64
1648,00;80,67
1647,00;80,68
1646,00;80,69
1645,00;80,67
1644,00;80,62
1643,00;80,60
1642,00;80,60
1641,00;80,59
1640,00;80,57
1639,00;80,55
1638,00;80,55
1637,00;80,55
1636,00;80,58
1635,00;80,61
1634,00;80,59
1633,00;80,56
1632,00;80,56
1631,00;80,56
1630,00;80,55
1629,00;80,53
1628,00;80,51
1627,00;80,50
1626,00;80,50
1625,00;80,49
1624,00;80,47
1623,00;80,46
1622,00;80,46
1621,00;80,47
1620,00;80,47
1619,00;80,48
1618,00;80,47
1617,00;80,44
1616,00;80,39
1615,00;80,37
1614,00;80,38
1613,00;80,41
1612,00;80,42
1611,00;80,40
1610,00;80,40
1609,00;80,42
1608,00;80,43
1607,00;80,45
1606,00;80,48
1605,00;80,49
1604,00;80,49
1603,00;80,50
1602,00;80,52
1601,00;80,53
1600,00;80,53
1599,00;80,53
1598,00;80,54
1597,00;80,55
1596,00;80,56
1595,00;80,57
1594,00;80,60
1593,00;80,61
1592,00;80,61
1591,00;80,62
1590,00;80,63
1589,00;80,63
1588,00;80,63
1587,00;80,62
1586,00;80,62
1585,00;80,61
1584,00;80,59
1583,00;80,57
1582,00;80,56
1581,00;80,55
1580,00;80,52
1579,00;80,51
1578,00;80,51
1577,00;80,48
1576,00;80,42
1575,00;80,36
1574,00;80,35
1573,00;80,37
1572,00;80,39
1571,00;80,36
1570,00;80,32
1569,00;80,28
1568,00;80,25
1567,00;80,24
1566,00;80,25
1565,00;80,23
1564,00;80,20
1563,00;80,20
1562,00;80,24
1561,00;80,21
1560,00;80,04
1559,00;79,97
1558,00;80,09
1557,00;80,11
1556,00;80,10
1555,00;80,12
1554,00;80,12
1553,00;80,07
1552,00;80,02
1551,00;80,02
1550,00;80,03
1549,00;80,04
1548,00;80,02
1547,00;80,00
1546,00;79,98
1545,00;79,96
1544,00;79,95
1543,00;79,96
1542,00;79,96
1541,00;79,95
1540,00;79,96
1539,00;79,97
1538,00;79,91
1537,00;79,87
1536,00;79,89
1535,00;79,90
1534,00;79,89
1533,00;79,89
1532,00;79,88
1531,00;79,87
1530,00;79,87
1529,00;79,86
1528,00;79,86
1527,00;79,86
1526,00;79,86
1525,00;79,86
1524,00;79,86
1523,00;79,86
1522,00;79,86
1521,00;79,85
1520,00;79,83
1519,00;79,80
1518,00;79,79
1517,00;79,79
1516,00;79,79
1515,00;79,78
1514,00;79,76
1513,00;79,74
1512,00;79,73
1511,00;79,71
1510,00;79,70
1509,00;79,70
1508,00;79,73
1507,00;79,82
1506,00;79,90
1505,00;79,84
1504,00;79,76
1503,00;79,74
1502,00;79,73
1501,00;79,71
1500,00;79,67
1499,00;79,64
1498,00;79,61
1497,00;79,61
1496,00;79,66
1495,00;79,71
1494,00;79,76
1493,00;79,83
1492,00;79,89
1491,00;79,92
1490,00;79,93
1489,00;79,95
1488,00;79,97
1487,00;79,96
1486,00;79,92
1485,00;79,88
1484,00;79,84
1483,00;79,80
1482,00;79,77
1481,00;79,76
1480,00;79,75
1479,00;79,73
1478,00;79,71
1477,00;79,69
1476,00;79,69
1475,00;79,69
1474,00;79,70
1473,00;79,71
1472,00;79,73
1471,00;79,73
1470,00;79,70
1469,00;79,69
1468,00;79,68
1467,00;79,67
1466,00;79,63
1465,00;79,61
1464,00;79,60
1463,00;79,59
1462,00;79,58
1461,00;79,58
1460,00;79,57
1459,00;79,56
1458,00;79,53
1457,00;79,52
1456,00;79,52
1455,00;79,50
1454,00;79,50
1453,00;79,52
1452,00;79,54
1451,00;79,55
1450,00;79,55
1449,00;79,57
1448,00;79,58
1447,00;79,58
1446,00;79,57
1445,00;79,53
1444,00;79,51
1443,00;79,50
1442,00;79,48
1441,00;79,46
1440,00;79,46
1439,00;79,48
1438,00;79,49
1437,00;79,47
1436,00;79,45
1435,00;79,45
1434,00;79,44
1433,00;79,43
1432,00;79,42
1431,00;79,41
1430,00;79,39
1429,00;79,38
1428,00;79,38
1427,00;79,38
1426,00;79,36
1425,00;79,34
1424,00;79,33
1423,00;79,35
1422,00;79,37
1421,00;79,36
1420,00;79,32
1419,00;79,29
1418,00;79,27
1417,00;79,27
1416,00;79,28
1415,00;79,30
1414,00;79,29
1413,00;79,26
1412,00;79,23
1411,00;79,22
1410,00;79,21
1409,00;79,19
1408,00;79,17
1407,00;79,17
1406,00;79,17
1405,00;79,17
1404,00;79,18
1403,00;79,20
1402,00;79,21
1401,00;79,21
1400,00;79,20
1399,00;79,20
1398,00;79,21
1397,00;79,21
1396,00;79,22
1395,00;79,23
1394,00;79,21
1393,00;79,18
1392,00;79,14
1391,00;79,14
1390,00;79,15
1389,00;79,14
1388,00;79,12
1387,00;79,11
1386,00;79,11
1385,00;79,11
1384,00;79,11
1383,00;79,12
1382,00;79,11
1381,00;79,10
1380,00;79,09
1379,00;79,08
1378,00;79,08
1377,00;79,07
1376,00;79,05
1375,00;79,05
1374,00;79,06
1373,00;79,07
1372,00;79,07
1371,00;79,06
1370,00;79,05
1369,00;79,05
1368,00;79,04
1367,00;79,03
1366,00;79,03
1365,00;79,02
1364,00;79,01
1363,00;79,01
1362,00;79,03
1361,00;79,04
1360,00;79,03
1359,00;79,02
1358,00;79,01
1357,00;79,00
1356,00;78,99
1355,00;78,99
1354,00;78,98
1353,00;78,98
1352,00;78,96
1351,00;78,95
1350,00;78,95
1349,00;78,94
1348,00;78,94
1347,00;78,93
1346,00;78,92
1345,00;78,92
1344,00;78,91
1343,00;78,91
1342,00;78,90
1341,00;78,89
1340,00;78,89
1339,00;78,90
1338,00;78,91
1337,00;78,91
1336,00;78,90
1335,00;78,89
1334,00;78,89
1333,00;78,89
1332,00;78,89
1331,00;78,89
1330,00;78,89
1329,00;78,89
1328,00;78,88
1327,00;78,87
1326,00;78,86
1325,00;78,85
1324,00;78,84
1323,00;78,84
1322,00;78,85
1321,00;78,85
1320,00;78,84
1319,00;78,85
1318,00;78,85
1317,00;78,85
1316,00;78,84
1315,00;78,84
1314,00;78,83
1313,00;78,83
1312,00;78,82
1311,00;78,82
1310,00;78,82
1309,00;78,81
1308,00;78,81
1307,00;78,81
1306,00;78,80
1305,00;78,79
1304,00;78,77
1303,00;78,76
1302,00;78,76
1301,00;78,75
1300,00;78,75
1299,00;78,75
1298,00;78,75
1297,00;78,75
1296,00;78,75
1295,00;78,74
1294,00;78,74
1293,00;78,74
1292,00;78,73
1291,00;78,73
1290,00;78,73
1289,00;78,73
1288,00;78,74
1287,00;78,74
1286,00;78,75
1285,00;78,75
1284,00;78,75
1283,00;78,75
1282,00;78,75
1281,00;78,75
1280,00;78,74
1279,00;78,74
1278,00;78,74
1277,00;78,74
1276,00;78,73
1275,00;78,72
1274,00;78,72
1273,00;78,72
1272,00;78,72
1271,00;78,72
1270,00;78,72
1269,00;78,72
1268,00;78,71
1267,00;78,70
1266,00;78,70
1265,00;78,69
1264,00;78,69
1263,00;78,69
1262,00;78,69
1261,00;78,68
1260,00;78,67
1259,00;78,66
1258,00;78,65
1257,00;78,64
1256,00;78,62
1255,00;78,61
1254,00;78,59
1253,00;78,57
1252,00;78,55
1251,00;78,53
1250,00;78,52
1249,00;78,50
1248,00;78,49
1247,00;78,49
1246,00;78,49
1245,00;78,48
1244,00;78,46
1243,00;78,45
1242,00;78,43
1241,00;78,42
1240,00;78,41
1239,00;78,40
1238,00;78,40
1237,00;78,39
1236,00;78,37
1235,00;78,35
1234,00;78,33
1233,00;78,32
1232,00;78,31
1231,00;78,30
1230,00;78,30
1229,00;78,29
1228,00;78,28
1227,00;78,27
1226,00;78,26
1225,00;78,25
1224,00;78,25
1223,00;78,24
1222,00;78,24
1221,00;78,24
1220,00;78,23
1219,00;78,23
1218,00;78,23
1217,00;78,23
1216,00;78,22
1215,00;78,22
1214,00;78,22
1213,00;78,21
1212,00;78,21
1211,00;78,21
1210,00;78,21
1209,00;78,20
1208,00;78,19
1207,00;78,18
1206,00;78,17
1205,00;78,16
1204,00;78,15
1203,00;78,15
1202,00;78,14
1201,00;78,14
1200,00;78,13
1199,00;78,13
1198,00;78,12
1197,00;78,11
1196,00;78,09
1195,00;78,08
1194,00;78,07
1193,00;78,06
1192,00;78,04
1191,00;78,03
1190,00;78,02
1189,00;78,00
1188,00;77,98
1187,00;77,97
1186,00;77,97
1185,00;77,96
1184,00;77,95
1183,00;77,95
1182,00;77,94
1181,00;77,93
1180,00;77,92
1179,00;77,93
1178,00;77,93
1177,00;77,93
1176,00;77,91
1175,00;77,90
1174,00;77,89
1173,00;77,88
1172,00;77,86
1171,00;77,85
1170,00;77,84
1169,00;77,82
1168,00;77,81
1167,00;77,80
1166,00;77,79
1165,00;77,78
1164,00;77,77
1163,00;77,75
1162,00;77,74
1161,00;77,74
1160,00;77,73
1159,00;77,72
1158,00;77,71
1157,00;77,70
1156,00;77,69
1155,00;77,68
1154,00;77,67
1153,00;77,66
1152,00;77,65
1151,00;77,65
1150,00;77,65
1149,00;77,64
1148,00;77,62
1147,00;77,61
1146,00;77,61
1145,00;77,61
1144,00;77,60
1143,00;77,58
1142,00;77,57
1141,00;77,55
1140,00;77,53
1139,00;77,52
1138,00;77,53
1137,00;77,53
1136,00;77,53
1135,00;77,53
1134,00;77,51
1133,00;77,49
1132,00;77,48
1131,00;77,47
1130,00;77,47
1129,00;77,46
1128,00;77,46
1127,00;77,45
1126,00;77,44
1125,00;77,43
1124,00;77,41
1123,00;77,41
1122,00;77,40
1121,00;77,39
1120,00;77,38
1119,00;77,37
1118,00;77,37
1117,00;77,36
1116,00;77,36
1115,00;77,35
1114,00;77,35
1113,00;77,34
1112,00;77,33
1111,00;77,31
1110,00;77,30
1109,00;77,29
1108,00;77,28
1107,00;77,28
1106,00;77,28
1105,00;77,28
1104,00;77,26
1103,00;77,24
1102,00;77,22
1101,00;77,20
1100,00;77,18
1099,00;77,17
1098,00;77,17
1097,00;77,17
1096,00;77,15
1095,00;77,14
1094,00;77,13
1093,00;77,12
1092,00;77,10
1091,00;77,09
1090,00;77,08
1089,00;77,07
1088,00;77,05
1087,00;77,05
1086,00;77,04
1085,00;77,04
1084,00;77,04
1083,00;77,04
1082,00;77,04
1081,00;77,03
1080,00;77,02
1079,00;77,01
1078,00;77,00
1077,00;76,99
1076,00;76,98
1075,00;76,98
1074,00;76,99
1073,00;76,99
1072,00;77,00
1071,00;76,99
1070,00;76,99
1069,00;76,97
1068,00;76,96
1067,00;76,96
1066,00;76,95
1065,00;76,95
1064,00;76,95
1063,00;76,96
1062,00;76,96
1061,00;76,95
1060,00;76,94
1059,00;76,94
1058,00;76,93
1057,00;76,92
1056,00;76,90
1055,00;76,88
1054,00;76,87
1053,00;76,87
1052,00;76,88
1051,00;76,91
1050,00;76,94
1049,00;76,97
1048,00;76,99
1047,00;77,01
1046,00;77,01
1045,00;77,00
1044,00;76,99
1043,00;76,98
1042,00;76,97
1041,00;76,96
1040,00;76,96
1039,00;76,97
1038,00;76,97
1037,00;76,97
1036,00;76,96
1035,00;76,96
1034,00;76,96
1033,00;76,95
1032,00;76,95
1031,00;76,94
1030,00;76,94
1029,00;76,94
1028,00;76,93
1027,00;76,92
1026,00;76,91
1025,00;76,90
1024,00;76,89
1023,00;76,89
1022,00;76,88
1021,00;76,88
1020,00;76,89
1019,00;76,90
1018,00;76,90
1017,00;76,90
1016,00;76,90
1015,00;76,89
1014,00;76,89
1013,00;76,89
1012,00;76,88
1011,00;76,89
1010,00;76,89
1009,00;76,88
1008,00;76,87
1007,00;76,86
1006,00;76,86
1005,00;76,86
1004,00;76,86
1003,00;76,85
1002,00;76,85
1001,00;76,84
1000,00;76,85
999,00;76,86
998,00;76,87
997,00;76,88
996,00;76,87
995,00;76,86
994,00;76,86
993,00;76,85
992,00;76,84
991,00;76,84
990,00;76,84
989,00;76,83
988,00;76,82
987,00;76,81
986,00;76,81
985,00;76,81
984,00;76,81
983,00;76,82
982,00;76,82
981,00;76,81
980,00;76,80
979,00;76,79
978,00;76,79
977,00;76,78
976,00;76,78
975,00;76,78
974,00;76,78
973,00;76,78
972,00;76,78
971,00;76,77
970,00;76,77
969,00;76,76
968,00;76,75
967,00;76,74
966,00;76,74
965,00;76,73
964,00;76,74
963,00;76,75
962,00;76,75
961,00;76,75
960,00;76,74
959,00;76,74
958,00;76,73
957,00;76,73
956,00;76,72
955,00;76,72
954,00;76,72
953,00;76,72
952,00;76,72
951,00;76,72
950,00;76,72
949,00;76,72
948,00;76,72
947,00;76,72
946,00;76,71
945,00;76,70
944,00;76,70
943,00;76,69
942,00;76,68
941,00;76,67
940,00;76,66
939,00;76,65
938,00;76,65
937,00;76,65
936,00;76,65
935,00;76,65
934,00;76,64
933,00;76,63
932,00;76,62
931,00;76,62
930,00;76,62
929,00;76,62
928,00;76,61
927,00;76,60
926,00;76,60
925,00;76,59
924,00;76,59
923,00;76,59
922,00;76,58
921,00;76,57
920,00;76,56
919,00;76,55
918,00;76,55
917,00;76,54
916,00;76,53
915,00;76,53
914,00;76,53
913,00;76,53
912,00;76,52
911,00;76,51
910,00;76,50
909,00;76,49
908,00;76,48
907,00;76,46
906,00;76,45
905,00;76,44
904,00;76,44
903,00;76,44
902,00;76,44
901,00;76,43
900,00;76,41
899,00;76,40
898,00;76,39
897,00;76,38
896,00;76,36
895,00;76,34
894,00;76,33
893,00;76,33
892,00;76,32
891,00;76,31
890,00;76,31
889,00;76,30
888,00;76,29
887,00;76,27
886,00;76,26
885,00;76,25
884,00;76,24
883,00;76,23
882,00;76,22
881,00;76,21
880,00;76,21
879,00;76,21
878,00;76,21
877,00;76,21
876,00;76,20
875,00;76,20
874,00;76,19
873,00;76,17
872,00;76,15
871,00;76,13
870,00;76,12
869,00;76,10
868,00;76,09
867,00;76,09
866,00;76,08
865,00;76,07
864,00;76,07
863,00;76,07
862,00;76,07
861,00;76,06
860,00;76,04
859,00;76,03
858,00;76,02
857,00;76,02
856,00;76,01
855,00;76,00
854,00;75,99
853,00;75,97
852,00;75,95
851,00;75,94
850,00;75,92
849,00;75,91
848,00;75,89
847,00;75,88
846,00;75,89
845,00;75,89
844,00;75,88
843,00;75,87
842,00;75,86
841,00;75,85
840,00;75,84
839,00;75,83
838,00;75,84
837,00;75,83
836,00;75,82
835,00;75,81
834,00;75,79
833,00;75,78
832,00;75,77
831,00;75,77
830,00;75,77
829,00;75,76
828,00;75,75
827,00;75,74
826,00;75,74
825,00;75,76
824,00;75,79
823,00;75,81
822,00;75,82
821,00;75,81
820,00;75,79
819,00;75,78
818,00;75,77
817,00;75,75
816,00;75,73
815,00;75,71
814,00;75,70
813,00;75,68
812,00;75,67
811,00;75,66
810,00;75,65
809,00;75,64
808,00;75,63
807,00;75,62
806,00;75,62
805,00;75,61
804,00;75,60
803,00;75,58
802,00;75,57
801,00;75,56
800,00;75,56
799,00;75,56
798,00;75,56
797,00;75,54
796,00;75,52
795,00;75,50
794,00;75,49
793,00;75,49
792,00;75,48
791,00;75,47
790,00;75,46
789,00;75,45
788,00;75,43
787,00;75,42
786,00;75,41
785,00;75,40
784,00;75,39
783,00;75,39
782,00;75,39
781,00;75,38
780,00;75,38
779,00;75,37
778,00;75,38
777,00;75,38
776,00;75,37
775,00;75,36
774,00;75,35
773,00;75,33
772,00;75,31
771,00;75,31
770,00;75,30
769,00;75,30
768,00;75,29
767,00;75,29
766,00;75,28
765,00;75,27
764,00;75,26
763,00;75,26
762,00;75,25
761,00;75,23
760,00;75,22
759,00;75,21
758,00;75,21
757,00;75,20
756,00;75,20
755,00;75,20
754,00;75,21
753,00;75,21
752,00;75,20
751,00;75,18
750,00;75,17
749,00;75,15
748,00;75,15
747,00;75,14
746,00;75,13
745,00;75,12
744,00;75,11
743,00;75,10
742,00;75,10
741,00;75,09
740,00;75,09
739,00;75,09
738,00;75,08
737,00;75,07
736,00;75,05
735,00;75,04
734,00;75,05
733,00;75,06
732,00;75,05
731,00;75,03
730,00;75,01
729,00;75,00
728,00;74,99
727,00;74,98
726,00;74,96
725,00;74,95
724,00;74,93
723,00;74,93
722,00;74,93
721,00;74,93
720,00;74,92
719,00;74,91
718,00;74,89
717,00;74,88
716,00;74,87
715,00;74,87
714,00;74,87
713,00;74,88
712,00;74,88
711,00;74,88
710,00;74,87
709,00;74,87
708,00;74,87
707,00;74,86
706,00;74,85
705,00;74,84
704,00;74,82
703,00;74,81
702,00;74,81
701,00;74,79
700,00;74,78
699,00;74,76
698,00;74,74
697,00;74,74
696,00;74,74
695,00;74,73
694,00;74,72
693,00;74,71
692,00;74,69
691,00;74,68
690,00;74,67
689,00;74,66
688,00;74,65
687,00;74,64
686,00;74,63
685,00;74,61
684,00;74,59
683,00;74,56
682,00;74,54
681,00;74,53
680,00;74,53
679,00;74,53
678,00;74,54
677,00;74,53
676,00;74,52
675,00;74,51
674,00;74,50
673,00;74,48
672,00;74,50
671,00;74,65
670,00;74,95
669,00;75,28
668,00;75,44
667,00;75,26
666,00;74,88
665,00;74,59
664,00;74,45
663,00;74,40
662,00;74,39
661,00;74,38
660,00;74,38
659,00;74,38
658,00;74,39
657,00;74,40
656,00;74,39
655,00;74,38
654,00;74,38
653,00;74,38
652,00;74,37
651,00;74,37
650,00;74,37
649,00;74,36
648,00;74,35
647,00;74,34
646,00;74,33
645,00;74,33
644,00;74,32
643,00;74,32
642,00;74,32
641,00;74,31
640,00;74,29
639,00;74,28
638,00;74,28
637,00;74,29
636,00;74,30
635,00;74,30
634,00;74,30
633,00;74,28
632,00;74,26
631,00;74,24
630,00;74,23
629,00;74,22
628,00;74,21
627,00;74,20
626,00;74,19
625,00;74,18
624,00;74,17
623,00;74,16
622,00;74,15
621,00;74,15
620,00;74,14
619,00;74,14
618,00;74,15
617,00;74,15
616,00;74,14
615,00;74,12
614,00;74,11
613,00;74,10
612,00;74,11
611,00;74,12
610,00;74,14
609,00;74,14
608,00;74,12
607,00;74,11
606,00;74,11
605,00;74,10
604,00;74,08
603,00;74,07
602,00;74,06
601,00;74,06
600,00;74,06
599,00;74,06
598,00;74,05
597,00;74,04
596,00;74,02
595,00;74,01
594,00;74,01
593,00;74,02
592,00;74,02
591,00;74,03
590,00;74,05
589,00;74,06
588,00;74,05
587,00;74,02
586,00;73,98
585,00;73,94
584,00;73,91
583,00;73,90
582,00;73,92
581,00;73,95
580,00;73,97
579,00;73,98
578,00;73,96
577,00;73,90
576,00;73,85
575,00;73,83
574,00;73,84
573,00;73,85
572,00;73,84
571,00;73,81
570,00;73,78
569,00;73,75
568,00;73,72
567,00;73,71
566,00;73,72
565,00;73,74
564,00;73,76
563,00;73,78
562,00;73,79
561,00;73,78
560,00;73,74
559,00;73,70
558,00;73,67
557,00;73,65
556,00;73,63
555,00;73,60
554,00;73,59
553,00;73,58
552,00;73,58
551,00;73,57
550,00;73,56
549,00;73,54
548,00;73,53
547,00;73,52
546,00;73,51
545,00;73,48
544,00;73,45
543,00;73,44
542,00;73,45
541,00;73,46
540,00;73,45
539,00;73,43
538,00;73,43
537,00;73,43
536,00;73,43
535,00;73,42
534,00;73,40
533,00;73,38
532,00;73,36
531,00;73,35
530,00;73,34
529,00;73,32
528,00;73,29
527,00;73,27
526,00;73,26
525,00;73,21
524,00;73,14
523,00;73,07
522,00;73,03
521,00;73,00
520,00;72,97
519,00;72,95
518,00;72,95
517,00;72,96
516,00;72,96
515,00;72,95
514,00;72,94
513,00;72,91
512,00;72,89
511,00;72,87
510,00;72,86
509,00;72,85
508,00;72,84
507,00;72,83
506,00;72,83
505,00;72,85
504,00;72,86
503,00;72,87
502,00;72,87
501,00;72,87
500,00;72,83
499,00;72,78
498,00;72,74
497,00;72,72
496,00;72,71
495,00;72,71
494,00;72,69
493,00;72,65
492,00;72,61
491,00;72,61
490,00;72,61
489,00;72,60
488,00;72,56
487,00;72,52
486,00;72,50
485,00;72,47
484,00;72,44
483,00;72,43
482,00;72,43
481,00;72,43
480,00;72,42
479,00;72,41
478,00;72,40
477,00;72,37
476,00;72,33
475,00;72,32
474,00;72,36
473,00;72,43
472,00;72,45
471,00;72,41
470,00;72,36
469,00;72,29
468,00;72,21
467,00;72,14
466,00;72,11
465,00;72,12
464,00;72,14
463,00;72,12
462,00;72,07
461,00;72,02
460,00;71,99
459,00;72,00
458,00;72,04
457,00;72,08
456,00;72,11
455,00;72,15
454,00;72,17
453,00;72,16
452,00;72,13
451,00;72,13
450,00;72,18
