#XList		#YList		#IList		
-39.341423	-21.065000	118.483681
-38.341423	-21.065000	132.707993
-37.341423	-21.065000	96.558632
-36.341423	-21.065000	100.056770
-35.341423	-21.065000	86.290359
-34.341423	-21.065000	134.871262
-33.341423	-21.065000	157.433609
-32.341423	-21.065000	134.488113
-31.341423	-21.065000	163.537735
-30.341423	-21.065000	163.299210
-29.341423	-21.065000	156.353851
-28.341423	-21.065000	148.439896
-27.341423	-21.065000	165.985519
-26.341423	-21.065000	146.553574
-25.341423	-21.065000	170.836761
-24.341423	-21.065000	111.127342
-23.341423	-21.065000	1.691682
-22.341423	-21.065000	38.439445
-21.341423	-21.065000	178.777496
-20.341423	-21.065000	101.431648
-19.341423	-21.065000	97.641457
-18.341423	-21.065000	71.070404
-17.341423	-21.065000	158.191757
-16.341423	-21.065000	170.986450
-15.341423	-21.065000	195.522888
-14.341423	-21.065000	130.389435
-13.341423	-21.065000	144.320694
-12.341423	-21.065000	162.780975
-11.341423	-21.065000	193.402634
-10.341423	-21.065000	2482.511719
-9.341423	-21.065000	83.259933
-8.341423	-21.065000	144.292404
-7.341423	-21.065000	107.587509
-6.341423	-21.065000	135.595306
-5.341423	-21.065000	150.101929
-4.341423	-21.065000	152.275070
-3.341423	-21.065000	68.397911
-2.341423	-21.065000	110.708427
-1.341423	-21.065000	108.605782
-0.341423	-21.065000	133.420456
0.658577	-21.065000	116.014565
1.658577	-21.065000	109.962830
2.658577	-21.065000	153.704559
3.658577	-21.065000	147.074112
4.658577	-21.065000	90.802185
5.658577	-21.065000	77.890045
6.658577	-21.065000	34.982796
7.658577	-21.065000	283.435638
8.658577	-21.065000	44.617714
9.658577	-21.065000	61.779259
10.658577	-21.065000	75.624321
11.658577	-21.065000	123.712914
12.658577	-21.065000	127.538681
13.658577	-21.065000	135.460312
14.658577	-21.065000	161.268753
15.658577	-21.065000	151.041473
16.658577	-21.065000	110.555763
17.658577	-21.065000	130.048492
18.658577	-21.065000	151.264740
19.658577	-21.065000	142.021973
20.658577	-21.065000	162.239899
21.658577	-21.065000	139.526596
22.658577	-21.065000	699.869568
23.658577	-21.065000	1520.271729
24.658577	-21.065000	717.488831
-39.341423	-20.065000	145.466629
-38.341423	-20.065000	126.364395
-37.341423	-20.065000	93.837982
-36.341423	-20.065000	98.747345
-35.341423	-20.065000	87.456192
-34.341423	-20.065000	121.200531
-33.341423	-20.065000	118.454475
-32.341423	-20.065000	128.578476
-31.341423	-20.065000	159.298401
-30.341423	-20.065000	124.295830
-29.341423	-20.065000	147.417038
-28.341423	-20.065000	132.777161
-27.341423	-20.065000	145.424835
-26.341423	-20.065000	145.918198
-25.341423	-20.065000	162.578796
-24.341423	-20.065000	139.212860
-23.341423	-20.065000	129.318497
-22.341423	-20.065000	174.702271
-21.341423	-20.065000	163.602722
-20.341423	-20.065000	157.251221
-19.341423	-20.065000	102.802757
-18.341423	-20.065000	108.455215
-17.341423	-20.065000	182.342758
-16.341423	-20.065000	176.768555
-15.341423	-20.065000	165.525696
-14.341423	-20.065000	149.597031
-13.341423	-20.065000	159.097244
-12.341423	-20.065000	175.639648
-11.341423	-20.065000	155.518265
-10.341423	-20.065000	122.641861
-9.341423	-20.065000	128.172928
-8.341423	-20.065000	126.267792
-7.341423	-20.065000	98.080742
-6.341423	-20.065000	107.421677
-5.341423	-20.065000	108.168823
-4.341423	-20.065000	176.047470
-3.341423	-20.065000	177.052948
-2.341423	-20.065000	167.834457
-1.341423	-20.065000	142.048691
-0.341423	-20.065000	122.218811
0.658577	-20.065000	100.712090
1.658577	-20.065000	99.547409
2.658577	-20.065000	98.373268
3.658577	-20.065000	84.646858
4.658577	-20.065000	83.926430
5.658577	-20.065000	68.517685
6.658577	-20.065000	37.437115
7.658577	-20.065000	0.639823
8.658577	-20.065000	70.788147
9.658577	-20.065000	106.856598
10.658577	-20.065000	83.245377
11.658577	-20.065000	86.100533
12.658577	-20.065000	146.074356
13.658577	-20.065000	157.705582
14.658577	-20.065000	149.254440
15.658577	-20.065000	151.736282
16.658577	-20.065000	170.619507
17.658577	-20.065000	148.883118
18.658577	-20.065000	150.481842
19.658577	-20.065000	153.897095
20.658577	-20.065000	172.856613
21.658577	-20.065000	186.364319
22.658577	-20.065000	605.042542
23.658577	-20.065000	2595.124023
24.658577	-20.065000	191.781464
-39.341423	-19.065000	133.238419
-38.341423	-19.065000	129.736298
-37.341423	-19.065000	117.169090
-36.341423	-19.065000	88.312706
-35.341423	-19.065000	123.996353
-34.341423	-19.065000	90.568810
-33.341423	-19.065000	104.903465
-32.341423	-19.065000	142.856827
-31.341423	-19.065000	170.247238
-30.341423	-19.065000	179.062332
-29.341423	-19.065000	150.364685
-28.341423	-19.065000	150.468155
-27.341423	-19.065000	135.139008
-26.341423	-19.065000	133.259476
-25.341423	-19.065000	150.421677
-24.341423	-19.065000	153.463272
-23.341423	-19.065000	152.887817
-22.341423	-19.065000	146.482513
-21.341423	-19.065000	139.588623
-20.341423	-19.065000	144.781052
-19.341423	-19.065000	146.522171
-18.341423	-19.065000	121.601013
-17.341423	-19.065000	185.414490
-16.341423	-19.065000	165.920868
-15.341423	-19.065000	173.997467
-14.341423	-19.065000	140.367615
-13.341423	-19.065000	159.074524
-12.341423	-19.065000	173.961929
-11.341423	-19.065000	176.012405
-10.341423	-19.065000	137.541504
-9.341423	-19.065000	117.775017
-8.341423	-19.065000	117.753342
-7.341423	-19.065000	124.921043
-6.341423	-19.065000	124.675034
-5.341423	-19.065000	118.715103
-4.341423	-19.065000	133.725403
-3.341423	-19.065000	161.315491
-2.341423	-19.065000	137.994797
-1.341423	-19.065000	113.044601
-0.341423	-19.065000	123.269684
0.658577	-19.065000	92.258347
1.658577	-19.065000	94.615768
2.658577	-19.065000	101.061096
3.658577	-19.065000	111.346336
4.658577	-19.065000	108.496635
5.658577	-19.065000	58.996792
6.658577	-19.065000	52.518963
7.658577	-19.065000	215.322159
8.658577	-19.065000	178.860992
9.658577	-19.065000	152.248093
10.658577	-19.065000	99.247452
11.658577	-19.065000	139.266556
12.658577	-19.065000	180.534271
13.658577	-19.065000	154.776733
14.658577	-19.065000	178.716019
15.658577	-19.065000	155.623795
16.658577	-19.065000	158.320267
17.658577	-19.065000	159.843185
18.658577	-19.065000	138.946930
19.658577	-19.065000	146.686722
20.658577	-19.065000	188.050308
21.658577	-19.065000	168.943695
22.658577	-19.065000	264.427338
23.658577	-19.065000	162.210052
24.658577	-19.065000	54.187336
-39.341423	-18.065000	150.301147
-38.341423	-18.065000	143.648849
-37.341423	-18.065000	142.883713
-36.341423	-18.065000	116.681129
-35.341423	-18.065000	163.310333
-34.341423	-18.065000	140.018570
-33.341423	-18.065000	130.758240
-32.341423	-18.065000	175.458466
-31.341423	-18.065000	162.913300
-30.341423	-18.065000	163.076172
-29.341423	-18.065000	136.404373
-28.341423	-18.065000	152.518799
-27.341423	-18.065000	153.760956
-26.341423	-18.065000	153.015732
-25.341423	-18.065000	152.158630
-24.341423	-18.065000	146.620407
-23.341423	-18.065000	140.534744
-22.341423	-18.065000	156.866974
-21.341423	-18.065000	133.820694
-20.341423	-18.065000	139.852310
-19.341423	-18.065000	175.291885
-18.341423	-18.065000	173.769623
-17.341423	-18.065000	163.284943
-16.341423	-18.065000	158.861206
-15.341423	-18.065000	175.008820
-14.341423	-18.065000	167.286011
-13.341423	-18.065000	168.746857
-12.341423	-18.065000	158.611664
-11.341423	-18.065000	182.650116
-10.341423	-18.065000	144.629608
-9.341423	-18.065000	125.733223
-8.341423	-18.065000	128.540741
-7.341423	-18.065000	144.511505
-6.341423	-18.065000	140.521194
-5.341423	-18.065000	154.993332
-4.341423	-18.065000	147.823441
-3.341423	-18.065000	130.977966
-2.341423	-18.065000	116.290428
-1.341423	-18.065000	132.890182
-0.341423	-18.065000	122.586296
0.658577	-18.065000	98.529640
1.658577	-18.065000	91.196793
2.658577	-18.065000	114.719269
3.658577	-18.065000	94.287430
4.658577	-18.065000	135.853821
5.658577	-18.065000	173.833054
6.658577	-18.065000	161.215286
7.658577	-18.065000	175.864838
8.658577	-18.065000	149.863785
9.658577	-18.065000	152.521530
10.658577	-18.065000	170.947159
11.658577	-18.065000	177.402451
12.658577	-18.065000	164.784760
13.658577	-18.065000	173.929550
14.658577	-18.065000	136.612778
15.658577	-18.065000	147.446594
16.658577	-18.065000	170.786301
17.658577	-18.065000	135.993423
18.658577	-18.065000	148.928192
19.658577	-18.065000	151.437393
20.658577	-18.065000	107.958031
21.658577	-18.065000	173.308273
22.658577	-18.065000	175.811737
23.658577	-18.065000	161.821198
24.658577	-18.065000	176.854858
-39.341423	-17.065000	142.909821
-38.341423	-17.065000	153.670074
-37.341423	-17.065000	179.119354
-36.341423	-17.065000	145.818970
-35.341423	-17.065000	125.430809
-34.341423	-17.065000	154.631088
-33.341423	-17.065000	140.625488
-32.341423	-17.065000	133.664246
-31.341423	-17.065000	145.805740
-30.341423	-17.065000	136.862869
-29.341423	-17.065000	142.889099
-28.341423	-17.065000	138.739334
-27.341423	-17.065000	146.865433
-26.341423	-17.065000	144.723053
-25.341423	-17.065000	155.254257
-24.341423	-17.065000	155.178726
-23.341423	-17.065000	154.878937
-22.341423	-17.065000	159.942642
-21.341423	-17.065000	174.888016
-20.341423	-17.065000	183.014359
-19.341423	-17.065000	144.081253
-18.341423	-17.065000	152.527496
-17.341423	-17.065000	170.269958
-16.341423	-17.065000	146.689194
-15.341423	-17.065000	165.526901
-14.341423	-17.065000	168.300980
-13.341423	-17.065000	163.946121
-12.341423	-17.065000	134.126602
-11.341423	-17.065000	157.515457
-10.341423	-17.065000	140.862915
-9.341423	-17.065000	125.057999
-8.341423	-17.065000	181.760391
-7.341423	-17.065000	180.871826
-6.341423	-17.065000	171.828842
-5.341423	-17.065000	170.331009
-4.341423	-17.065000	139.820984
-3.341423	-17.065000	120.756584
-2.341423	-17.065000	126.162102
-1.341423	-17.065000	142.453781
-0.341423	-17.065000	105.889442
0.658577	-17.065000	123.710899
1.658577	-17.065000	125.285652
2.658577	-17.065000	135.945541
3.658577	-17.065000	96.855225
4.658577	-17.065000	150.511398
5.658577	-17.065000	124.164589
6.658577	-17.065000	141.832397
7.658577	-17.065000	152.554596
8.658577	-17.065000	160.377914
9.658577	-17.065000	164.523636
10.658577	-17.065000	159.206787
11.658577	-17.065000	154.407349
12.658577	-17.065000	173.325348
13.658577	-17.065000	174.146469
14.658577	-17.065000	132.598633
15.658577	-17.065000	167.575684
16.658577	-17.065000	165.889999
17.658577	-17.065000	82.833008
18.658577	-17.065000	87.879356
19.658577	-17.065000	96.237411
20.658577	-17.065000	200.132721
21.658577	-17.065000	177.615753
22.658577	-17.065000	184.028091
23.658577	-17.065000	114.659721
24.658577	-17.065000	187.720505
-39.341423	-16.065000	132.171509
-38.341423	-16.065000	176.568085
-37.341423	-16.065000	164.841553
-36.341423	-16.065000	151.143326
-35.341423	-16.065000	181.760056
-34.341423	-16.065000	188.235077
-33.341423	-16.065000	172.305222
-32.341423	-16.065000	171.976395
-31.341423	-16.065000	161.136261
-30.341423	-16.065000	154.138931
-29.341423	-16.065000	146.717941
-28.341423	-16.065000	156.472275
-27.341423	-16.065000	166.287155
-26.341423	-16.065000	139.337189
-25.341423	-16.065000	143.491913
-24.341423	-16.065000	150.170013
-23.341423	-16.065000	156.262878
-22.341423	-16.065000	158.933609
-21.341423	-16.065000	129.404755
-20.341423	-16.065000	226.093842
-19.341423	-16.065000	88.312881
-18.341423	-16.065000	197.766541
-17.341423	-16.065000	153.339798
-16.341423	-16.065000	124.123779
-15.341423	-16.065000	142.901611
-14.341423	-16.065000	182.805115
-13.341423	-16.065000	149.446442
-12.341423	-16.065000	168.912109
-11.341423	-16.065000	158.729675
-10.341423	-16.065000	158.052185
-9.341423	-16.065000	158.031860
-8.341423	-16.065000	131.686386
-7.341423	-16.065000	111.840446
-6.341423	-16.065000	141.871628
-5.341423	-16.065000	171.107544
-4.341423	-16.065000	137.344406
-3.341423	-16.065000	111.919418
-2.341423	-16.065000	102.714813
-1.341423	-16.065000	149.512573
-0.341423	-16.065000	174.126083
0.658577	-16.065000	152.860413
1.658577	-16.065000	149.683304
2.658577	-16.065000	85.943665
3.658577	-16.065000	89.803345
4.658577	-16.065000	89.973991
5.658577	-16.065000	144.331329
6.658577	-16.065000	149.964554
7.658577	-16.065000	148.679337
8.658577	-16.065000	169.732727
9.658577	-16.065000	146.314392
10.658577	-16.065000	159.537659
11.658577	-16.065000	183.286957
12.658577	-16.065000	167.080750
13.658577	-16.065000	193.426743
14.658577	-16.065000	204.856812
15.658577	-16.065000	198.478287
16.658577	-16.065000	162.910553
17.658577	-16.065000	95.841225
18.658577	-16.065000	76.557037
19.658577	-16.065000	149.876831
20.658577	-16.065000	185.090683
21.658577	-16.065000	124.617989
22.658577	-16.065000	178.586838
23.658577	-16.065000	140.182236
24.658577	-16.065000	166.567017
-39.341423	-15.065000	106.641953
-38.341423	-15.065000	167.813202
-37.341423	-15.065000	186.392563
-36.341423	-15.065000	165.539948
-35.341423	-15.065000	137.736801
-34.341423	-15.065000	175.122894
-33.341423	-15.065000	136.352783
-32.341423	-15.065000	134.536942
-31.341423	-15.065000	159.430237
-30.341423	-15.065000	147.509598
-29.341423	-15.065000	171.239761
-28.341423	-15.065000	138.685318
-27.341423	-15.065000	154.482040
-26.341423	-15.065000	139.976578
-25.341423	-15.065000	165.979492
-24.341423	-15.065000	154.873016
-23.341423	-15.065000	151.569382
-22.341423	-15.065000	133.165939
-21.341423	-15.065000	165.461197
-20.341423	-15.065000	150.121964
-19.341423	-15.065000	167.760208
-18.341423	-15.065000	162.193741
-17.341423	-15.065000	164.600983
-16.341423	-15.065000	155.251846
-15.341423	-15.065000	149.682404
-14.341423	-15.065000	133.045761
-13.341423	-15.065000	167.455170
-12.341423	-15.065000	140.484924
-11.341423	-15.065000	203.432602
-10.341423	-15.065000	144.325409
-9.341423	-15.065000	134.081879
-8.341423	-15.065000	121.631721
-7.341423	-15.065000	136.922089
-6.341423	-15.065000	126.484634
-5.341423	-15.065000	143.282791
-4.341423	-15.065000	119.380302
-3.341423	-15.065000	110.121742
-2.341423	-15.065000	103.148361
-1.341423	-15.065000	124.371094
-0.341423	-15.065000	146.916183
0.658577	-15.065000	131.260498
1.658577	-15.065000	143.864731
2.658577	-15.065000	138.821304
3.658577	-15.065000	95.730362
4.658577	-15.065000	127.961708
5.658577	-15.065000	144.307419
6.658577	-15.065000	177.399719
7.658577	-15.065000	147.707397
8.658577	-15.065000	143.965363
9.658577	-15.065000	152.658752
10.658577	-15.065000	142.854996
11.658577	-15.065000	174.945419
12.658577	-15.065000	188.342316
13.658577	-15.065000	131.525146
14.658577	-15.065000	187.191803
15.658577	-15.065000	200.475723
16.658577	-15.065000	160.806549
17.658577	-15.065000	145.272675
18.658577	-15.065000	123.761147
19.658577	-15.065000	160.555908
20.658577	-15.065000	161.624481
21.658577	-15.065000	135.008255
22.658577	-15.065000	186.770889
23.658577	-15.065000	162.334000
24.658577	-15.065000	215.557480
-39.341423	-14.065000	116.571617
-38.341423	-14.065000	193.800018
-37.341423	-14.065000	128.976120
-36.341423	-14.065000	173.124680
-35.341423	-14.065000	160.799118
-34.341423	-14.065000	166.717590
-33.341423	-14.065000	130.112335
-32.341423	-14.065000	137.417099
-31.341423	-14.065000	160.516800
-30.341423	-14.065000	145.053940
-29.341423	-14.065000	161.264221
-28.341423	-14.065000	157.934052
-27.341423	-14.065000	148.543076
-26.341423	-14.065000	173.240417
-25.341423	-14.065000	144.012192
-24.341423	-14.065000	149.956940
-23.341423	-14.065000	157.323898
-22.341423	-14.065000	146.767334
-21.341423	-14.065000	156.569885
-20.341423	-14.065000	172.430267
-19.341423	-14.065000	151.049332
-18.341423	-14.065000	181.299118
-17.341423	-14.065000	166.485428
-16.341423	-14.065000	163.657928
-15.341423	-14.065000	183.643448
-14.341423	-14.065000	180.157990
-13.341423	-14.065000	177.272171
-12.341423	-14.065000	195.275330
-11.341423	-14.065000	148.387085
-10.341423	-14.065000	124.234215
-9.341423	-14.065000	129.980957
-8.341423	-14.065000	110.630409
-7.341423	-14.065000	118.214340
-6.341423	-14.065000	127.414192
-5.341423	-14.065000	134.567993
-4.341423	-14.065000	102.889847
-3.341423	-14.065000	114.046501
-2.341423	-14.065000	95.576912
-1.341423	-14.065000	115.076378
-0.341423	-14.065000	128.681641
0.658577	-14.065000	144.197403
1.658577	-14.065000	124.988876
2.658577	-14.065000	114.807831
3.658577	-14.065000	88.982140
4.658577	-14.065000	110.600632
5.658577	-14.065000	132.853348
6.658577	-14.065000	184.495834
7.658577	-14.065000	172.431824
8.658577	-14.065000	128.209351
9.658577	-14.065000	165.767624
10.658577	-14.065000	178.698303
11.658577	-14.065000	106.660072
12.658577	-14.065000	114.192390
13.658577	-14.065000	183.938217
14.658577	-14.065000	101.729156
15.658577	-14.065000	65.315277
16.658577	-14.065000	97.952637
17.658577	-14.065000	192.616074
18.658577	-14.065000	124.366837
19.658577	-14.065000	124.562630
20.658577	-14.065000	116.165382
21.658577	-14.065000	134.770767
22.658577	-14.065000	139.752884
23.658577	-14.065000	123.190079
24.658577	-14.065000	111.938744
-39.341423	-13.065000	160.904526
-38.341423	-13.065000	157.201202
-37.341423	-13.065000	176.292358
-36.341423	-13.065000	128.951889
-35.341423	-13.065000	135.965363
-34.341423	-13.065000	130.507339
-33.341423	-13.065000	140.694427
-32.341423	-13.065000	167.533752
-31.341423	-13.065000	161.127502
-30.341423	-13.065000	157.007401
-29.341423	-13.065000	158.327866
-28.341423	-13.065000	157.720383
-27.341423	-13.065000	163.151062
-26.341423	-13.065000	154.870682
-25.341423	-13.065000	153.390427
-24.341423	-13.065000	143.098923
-23.341423	-13.065000	138.396469
-22.341423	-13.065000	159.304825
-21.341423	-13.065000	164.973602
-20.341423	-13.065000	139.200638
-19.341423	-13.065000	127.770050
-18.341423	-13.065000	90.573059
-17.341423	-13.065000	73.699738
-16.341423	-13.065000	84.686462
-15.341423	-13.065000	137.982101
-14.341423	-13.065000	140.173340
-13.341423	-13.065000	161.777969
-12.341423	-13.065000	126.508583
-11.341423	-13.065000	125.461327
-10.341423	-13.065000	119.004524
-9.341423	-13.065000	113.683777
-8.341423	-13.065000	112.087631
-7.341423	-13.065000	120.250351
-6.341423	-13.065000	134.619095
-5.341423	-13.065000	120.794861
-4.341423	-13.065000	101.845184
-3.341423	-13.065000	141.359879
-2.341423	-13.065000	116.469879
-1.341423	-13.065000	127.625984
-0.341423	-13.065000	145.567032
0.658577	-13.065000	143.092026
1.658577	-13.065000	137.302628
2.658577	-13.065000	106.843864
3.658577	-13.065000	97.623817
4.658577	-13.065000	113.496529
5.658577	-13.065000	108.495682
6.658577	-13.065000	149.404205
7.658577	-13.065000	179.699905
8.658577	-13.065000	169.532822
9.658577	-13.065000	182.985184
10.658577	-13.065000	131.862320
11.658577	-13.065000	156.861389
12.658577	-13.065000	124.064178
13.658577	-13.065000	100.437233
14.658577	-13.065000	144.927811
15.658577	-13.065000	137.198776
16.658577	-13.065000	198.053238
17.658577	-13.065000	186.015091
18.658577	-13.065000	128.785583
19.658577	-13.065000	131.782501
20.658577	-13.065000	147.698334
21.658577	-13.065000	113.770821
22.658577	-13.065000	154.060623
23.658577	-13.065000	125.951591
24.658577	-13.065000	97.167046
-39.341423	-12.065000	152.253708
-38.341423	-12.065000	135.507797
-37.341423	-12.065000	161.785995
-36.341423	-12.065000	135.919876
-35.341423	-12.065000	131.764084
-34.341423	-12.065000	151.351425
-33.341423	-12.065000	169.980698
-32.341423	-12.065000	171.672867
-31.341423	-12.065000	153.060394
-30.341423	-12.065000	164.097855
-29.341423	-12.065000	153.465057
-28.341423	-12.065000	159.926758
-27.341423	-12.065000	152.253342
-26.341423	-12.065000	169.326752
-25.341423	-12.065000	161.713348
-24.341423	-12.065000	142.203094
-23.341423	-12.065000	153.069382
-22.341423	-12.065000	163.751556
-21.341423	-12.065000	90.785561
-20.341423	-12.065000	89.239555
-19.341423	-12.065000	96.697449
-18.341423	-12.065000	90.436226
-17.341423	-12.065000	82.039665
-16.341423	-12.065000	86.354500
-15.341423	-12.065000	117.738167
-14.341423	-12.065000	138.736465
-13.341423	-12.065000	208.216614
-12.341423	-12.065000	124.122505
-11.341423	-12.065000	133.374481
-10.341423	-12.065000	120.273018
-9.341423	-12.065000	119.051826
-8.341423	-12.065000	111.256668
-7.341423	-12.065000	137.243622
-6.341423	-12.065000	153.703232
-5.341423	-12.065000	139.928253
-4.341423	-12.065000	121.757446
-3.341423	-12.065000	131.530167
-2.341423	-12.065000	144.524109
-1.341423	-12.065000	136.830917
-0.341423	-12.065000	145.668823
0.658577	-12.065000	129.875320
1.658577	-12.065000	130.320709
2.658577	-12.065000	106.433937
3.658577	-12.065000	85.649811
4.658577	-12.065000	105.566658
5.658577	-12.065000	99.236923
6.658577	-12.065000	112.663559
7.658577	-12.065000	175.398804
8.658577	-12.065000	149.283478
9.658577	-12.065000	74.342484
10.658577	-12.065000	122.227539
11.658577	-12.065000	114.576263
12.658577	-12.065000	118.873024
13.658577	-12.065000	75.980316
14.658577	-12.065000	140.148697
15.658577	-12.065000	172.746765
16.658577	-12.065000	182.703064
17.658577	-12.065000	150.714615
18.658577	-12.065000	138.296066
19.658577	-12.065000	106.429016
20.658577	-12.065000	93.342018
21.658577	-12.065000	105.808456
22.658577	-12.065000	104.929573
23.658577	-12.065000	134.824051
24.658577	-12.065000	115.524918
-39.341423	-11.065000	137.113754
-38.341423	-11.065000	137.567291
-37.341423	-11.065000	175.281906
-36.341423	-11.065000	155.988129
-35.341423	-11.065000	148.331863
-34.341423	-11.065000	168.822235
-33.341423	-11.065000	160.819244
-32.341423	-11.065000	165.345139
-31.341423	-11.065000	165.147034
-30.341423	-11.065000	141.222488
-29.341423	-11.065000	163.820419
-28.341423	-11.065000	124.909088
-27.341423	-11.065000	163.124619
-26.341423	-11.065000	165.566513
-25.341423	-11.065000	168.010559
-24.341423	-11.065000	163.204681
-23.341423	-11.065000	147.025848
-22.341423	-11.065000	144.875031
-21.341423	-11.065000	167.142715
-20.341423	-11.065000	120.258911
-19.341423	-11.065000	143.174591
-18.341423	-11.065000	98.222122
-17.341423	-11.065000	95.442131
-16.341423	-11.065000	121.234421
-15.341423	-11.065000	157.636673
-14.341423	-11.065000	165.309723
-13.341423	-11.065000	116.639946
-12.341423	-11.065000	145.329102
-11.341423	-11.065000	153.322708
-10.341423	-11.065000	135.198151
-9.341423	-11.065000	116.497360
-8.341423	-11.065000	92.034134
-7.341423	-11.065000	127.874779
-6.341423	-11.065000	163.786179
-5.341423	-11.065000	134.993576
-4.341423	-11.065000	115.831993
-3.341423	-11.065000	103.278419
-2.341423	-11.065000	119.566780
-1.341423	-11.065000	134.951340
-0.341423	-11.065000	163.525726
0.658577	-11.065000	133.398041
1.658577	-11.065000	143.820511
2.658577	-11.065000	128.305756
3.658577	-11.065000	85.454620
4.658577	-11.065000	93.966766
5.658577	-11.065000	120.267998
6.658577	-11.065000	84.315407
7.658577	-11.065000	142.988647
8.658577	-11.065000	169.380936
9.658577	-11.065000	109.990562
10.658577	-11.065000	12.255853
11.658577	-11.065000	1271.242310
12.658577	-11.065000	121.434380
13.658577	-11.065000	159.457657
14.658577	-11.065000	135.947235
15.658577	-11.065000	162.265869
16.658577	-11.065000	166.042007
17.658577	-11.065000	100.869965
18.658577	-11.065000	88.907097
19.658577	-11.065000	79.443947
20.658577	-11.065000	80.308937
21.658577	-11.065000	74.636421
22.658577	-11.065000	86.185738
23.658577	-11.065000	126.440613
24.658577	-11.065000	147.886032
-39.341423	-10.065000	124.676971
-38.341423	-10.065000	165.193390
-37.341423	-10.065000	140.102188
-36.341423	-10.065000	148.499207
-35.341423	-10.065000	141.521698
-34.341423	-10.065000	155.209030
-33.341423	-10.065000	164.347305
-32.341423	-10.065000	135.947800
-31.341423	-10.065000	167.308685
-30.341423	-10.065000	129.108536
-29.341423	-10.065000	123.108307
-28.341423	-10.065000	134.871094
-27.341423	-10.065000	136.261536
-26.341423	-10.065000	169.139145
-25.341423	-10.065000	167.628143
-24.341423	-10.065000	165.757324
-23.341423	-10.065000	132.914688
-22.341423	-10.065000	110.557327
-21.341423	-10.065000	170.954712
-20.341423	-10.065000	183.385742
-19.341423	-10.065000	139.474655
-18.341423	-10.065000	96.403229
-17.341423	-10.065000	97.984795
-16.341423	-10.065000	119.630821
-15.341423	-10.065000	144.999237
-14.341423	-10.065000	174.283325
-13.341423	-10.065000	157.538162
-12.341423	-10.065000	163.873459
-11.341423	-10.065000	189.589844
-10.341423	-10.065000	161.929825
-9.341423	-10.065000	99.330208
-8.341423	-10.065000	98.121666
-7.341423	-10.065000	89.034431
-6.341423	-10.065000	81.834709
-5.341423	-10.065000	79.208153
-4.341423	-10.065000	91.151276
-3.341423	-10.065000	96.727539
-2.341423	-10.065000	105.305649
-1.341423	-10.065000	151.671509
-0.341423	-10.065000	143.604080
0.658577	-10.065000	141.640030
1.658577	-10.065000	141.650925
2.658577	-10.065000	99.320808
3.658577	-10.065000	71.718559
4.658577	-10.065000	87.240868
5.658577	-10.065000	128.086853
6.658577	-10.065000	169.630798
7.658577	-10.065000	159.835648
8.658577	-10.065000	112.288818
9.658577	-10.065000	1135.700684
10.658577	-10.065000	1902.265259
11.658577	-10.065000	2595.124023
12.658577	-10.065000	118.194794
13.658577	-10.065000	107.874336
14.658577	-10.065000	93.965385
15.658577	-10.065000	158.208679
16.658577	-10.065000	126.998192
17.658577	-10.065000	82.459953
18.658577	-10.065000	74.505989
19.658577	-10.065000	82.730316
20.658577	-10.065000	85.351433
21.658577	-10.065000	80.864624
22.658577	-10.065000	70.149948
23.658577	-10.065000	88.119125
24.658577	-10.065000	121.231171
-39.341423	-9.065000	128.199173
-38.341423	-9.065000	152.581863
-37.341423	-9.065000	157.543320
-36.341423	-9.065000	161.744263
-35.341423	-9.065000	166.144897
-34.341423	-9.065000	134.304214
-33.341423	-9.065000	133.871262
-32.341423	-9.065000	163.085297
-31.341423	-9.065000	171.406906
-30.341423	-9.065000	161.170151
-29.341423	-9.065000	162.655624
-28.341423	-9.065000	156.216644
-27.341423	-9.065000	168.197769
-26.341423	-9.065000	163.216965
-25.341423	-9.065000	155.230652
-24.341423	-9.065000	134.353668
-23.341423	-9.065000	208.369980
-22.341423	-9.065000	47.335133
-21.341423	-9.065000	123.785416
-20.341423	-9.065000	117.965424
-19.341423	-9.065000	155.570465
-18.341423	-9.065000	114.464729
-17.341423	-9.065000	137.797379
-16.341423	-9.065000	138.486633
-15.341423	-9.065000	144.149918
-14.341423	-9.065000	168.548187
-13.341423	-9.065000	141.609756
-12.341423	-9.065000	175.552231
-11.341423	-9.065000	168.943359
-10.341423	-9.065000	136.987488
-9.341423	-9.065000	177.885468
-8.341423	-9.065000	170.457870
-7.341423	-9.065000	85.847801
-6.341423	-9.065000	72.968941
-5.341423	-9.065000	73.926682
-4.341423	-9.065000	100.768120
-3.341423	-9.065000	97.072456
-2.341423	-9.065000	78.961281
-1.341423	-9.065000	117.643654
-0.341423	-9.065000	141.958191
0.658577	-9.065000	147.673187
1.658577	-9.065000	142.265976
2.658577	-9.065000	76.775955
3.658577	-9.065000	86.711357
4.658577	-9.065000	102.112442
5.658577	-9.065000	128.639374
6.658577	-9.065000	184.301620
7.658577	-9.065000	163.027130
8.658577	-9.065000	172.873260
9.658577	-9.065000	2595.124023
10.658577	-9.065000	8.166258
11.658577	-9.065000	638.158508
12.658577	-9.065000	166.665863
13.658577	-9.065000	106.687210
14.658577	-9.065000	99.880814
15.658577	-9.065000	137.104523
16.658577	-9.065000	100.525223
17.658577	-9.065000	116.631187
18.658577	-9.065000	79.966751
19.658577	-9.065000	81.178116
20.658577	-9.065000	79.983765
21.658577	-9.065000	74.191582
22.658577	-9.065000	87.230659
23.658577	-9.065000	87.608261
24.658577	-9.065000	182.528214
-39.341423	-8.065000	164.194199
-38.341423	-8.065000	164.562378
-37.341423	-8.065000	164.025192
-36.341423	-8.065000	140.236282
-35.341423	-8.065000	138.341583
-34.341423	-8.065000	169.308350
-33.341423	-8.065000	130.544769
-32.341423	-8.065000	142.988144
-31.341423	-8.065000	158.986694
-30.341423	-8.065000	166.216934
-29.341423	-8.065000	155.045792
-28.341423	-8.065000	179.354919
-27.341423	-8.065000	143.377609
-26.341423	-8.065000	173.941467
-25.341423	-8.065000	186.138580
-24.341423	-8.065000	134.978561
-23.341423	-8.065000	86.323570
-22.341423	-8.065000	114.887802
-21.341423	-8.065000	90.646835
-20.341423	-8.065000	91.867989
-19.341423	-8.065000	132.309784
-18.341423	-8.065000	171.895325
-17.341423	-8.065000	150.026093
-16.341423	-8.065000	146.842377
-15.341423	-8.065000	121.940247
-14.341423	-8.065000	151.039200
-13.341423	-8.065000	154.382233
-12.341423	-8.065000	156.236130
-11.341423	-8.065000	163.550812
-10.341423	-8.065000	128.945175
-9.341423	-8.065000	180.455719
-8.341423	-8.065000	155.998795
-7.341423	-8.065000	75.733795
-6.341423	-8.065000	70.237167
-5.341423	-8.065000	79.618889
-4.341423	-8.065000	77.516205
-3.341423	-8.065000	102.066040
-2.341423	-8.065000	83.977982
-1.341423	-8.065000	103.513176
-0.341423	-8.065000	135.459274
0.658577	-8.065000	167.729263
1.658577	-8.065000	102.417694
2.658577	-8.065000	166.563797
3.658577	-8.065000	141.260529
4.658577	-8.065000	138.078735
5.658577	-8.065000	154.828690
6.658577	-8.065000	176.498779
7.658577	-8.065000	184.435867
8.658577	-8.065000	55.791584
9.658577	-8.065000	1255.213257
10.658577	-8.065000	48.495132
11.658577	-8.065000	82.387680
12.658577	-8.065000	152.562485
13.658577	-8.065000	105.246407
14.658577	-8.065000	114.914619
15.658577	-8.065000	163.147308
16.658577	-8.065000	121.313324
17.658577	-8.065000	113.351112
18.658577	-8.065000	82.555588
19.658577	-8.065000	85.004951
20.658577	-8.065000	97.119217
21.658577	-8.065000	72.791306
22.658577	-8.065000	68.344276
23.658577	-8.065000	110.674385
24.658577	-8.065000	161.227020
-39.341423	-7.065000	172.973236
-38.341423	-7.065000	123.873398
-37.341423	-7.065000	158.128937
-36.341423	-7.065000	157.226700
-35.341423	-7.065000	167.373108
-34.341423	-7.065000	173.125580
-33.341423	-7.065000	168.374786
-32.341423	-7.065000	156.456909
-31.341423	-7.065000	177.681488
-30.341423	-7.065000	170.909332
-29.341423	-7.065000	176.299042
-28.341423	-7.065000	172.060303
-27.341423	-7.065000	165.650681
-26.341423	-7.065000	168.314484
-25.341423	-7.065000	189.514908
-24.341423	-7.065000	130.605774
-23.341423	-7.065000	100.982559
-22.341423	-7.065000	112.210556
-21.341423	-7.065000	88.630318
-20.341423	-7.065000	116.878090
-19.341423	-7.065000	174.426315
-18.341423	-7.065000	168.328049
-17.341423	-7.065000	181.963104
-16.341423	-7.065000	168.225739
-15.341423	-7.065000	136.048996
-14.341423	-7.065000	143.544846
-13.341423	-7.065000	151.944992
-12.341423	-7.065000	156.744034
-11.341423	-7.065000	159.236404
-10.341423	-7.065000	164.604095
-9.341423	-7.065000	170.808594
-8.341423	-7.065000	188.442337
-7.341423	-7.065000	128.569687
-6.341423	-7.065000	88.543762
-5.341423	-7.065000	54.346268
-4.341423	-7.065000	75.869049
-3.341423	-7.065000	186.727814
-2.341423	-7.065000	186.863739
-1.341423	-7.065000	133.871109
-0.341423	-7.065000	135.414337
0.658577	-7.065000	104.143776
1.658577	-7.065000	100.386826
2.658577	-7.065000	143.744904
3.658577	-7.065000	140.160660
4.658577	-7.065000	145.167252
5.658577	-7.065000	148.328918
6.658577	-7.065000	162.562164
7.658577	-7.065000	122.906868
8.658577	-7.065000	1156.520508
9.658577	-7.065000	96.987701
10.658577	-7.065000	172.085754
11.658577	-7.065000	221.608139
12.658577	-7.065000	199.732712
13.658577	-7.065000	185.198212
14.658577	-7.065000	174.531723
15.658577	-7.065000	172.806335
16.658577	-7.065000	108.067268
17.658577	-7.065000	97.635162
18.658577	-7.065000	93.839272
19.658577	-7.065000	85.557961
20.658577	-7.065000	113.713394
21.658577	-7.065000	105.446754
22.658577	-7.065000	106.640091
23.658577	-7.065000	154.238708
24.658577	-7.065000	149.812881
-39.341423	-6.065000	163.026413
-38.341423	-6.065000	164.566788
-37.341423	-6.065000	132.687057
-36.341423	-6.065000	160.279373
-35.341423	-6.065000	161.791077
-34.341423	-6.065000	163.739456
-33.341423	-6.065000	168.059616
-32.341423	-6.065000	162.449631
-31.341423	-6.065000	157.019669
-30.341423	-6.065000	155.042770
-29.341423	-6.065000	165.388138
-28.341423	-6.065000	169.349258
-27.341423	-6.065000	165.384781
-26.341423	-6.065000	163.162094
-25.341423	-6.065000	151.480927
-24.341423	-6.065000	158.466507
-23.341423	-6.065000	122.897247
-22.341423	-6.065000	151.143478
-21.341423	-6.065000	149.932343
-20.341423	-6.065000	154.482498
-19.341423	-6.065000	178.161636
-18.341423	-6.065000	747.824768
-17.341423	-6.065000	179.652222
-16.341423	-6.065000	154.034653
-15.341423	-6.065000	168.628174
-14.341423	-6.065000	153.448334
-13.341423	-6.065000	147.940353
-12.341423	-6.065000	132.915756
-11.341423	-6.065000	122.827049
-10.341423	-6.065000	158.579834
-9.341423	-6.065000	169.240585
-8.341423	-6.065000	188.132523
-7.341423	-6.065000	172.503311
-6.341423	-6.065000	191.784683
-5.341423	-6.065000	158.051285
-4.341423	-6.065000	1113.279663
-3.341423	-6.065000	115.982430
-2.341423	-6.065000	103.170029
-1.341423	-6.065000	121.308945
-0.341423	-6.065000	20.943684
0.658577	-6.065000	77.714043
1.658577	-6.065000	511.412476
2.658577	-6.065000	162.689499
3.658577	-6.065000	151.925766
4.658577	-6.065000	136.020599
5.658577	-6.065000	137.185165
6.658577	-6.065000	135.001694
7.658577	-6.065000	174.373993
8.658577	-6.065000	208.184067
9.658577	-6.065000	120.733650
10.658577	-6.065000	122.487030
11.658577	-6.065000	160.847595
12.658577	-6.065000	178.318954
13.658577	-6.065000	146.340195
14.658577	-6.065000	130.409500
15.658577	-6.065000	136.115875
16.658577	-6.065000	165.692581
17.658577	-6.065000	94.623810
18.658577	-6.065000	84.704842
19.658577	-6.065000	89.619812
20.658577	-6.065000	80.828712
21.658577	-6.065000	106.556427
22.658577	-6.065000	106.078491
23.658577	-6.065000	116.113625
24.658577	-6.065000	122.985031
-39.341423	-5.065000	171.671432
-38.341423	-5.065000	169.335724
-37.341423	-5.065000	131.685959
-36.341423	-5.065000	161.286652
-35.341423	-5.065000	164.359085
-34.341423	-5.065000	135.087814
-33.341423	-5.065000	145.055023
-32.341423	-5.065000	165.694168
-31.341423	-5.065000	140.717896
-30.341423	-5.065000	137.161072
-29.341423	-5.065000	178.783691
-28.341423	-5.065000	170.695190
-27.341423	-5.065000	162.949707
-26.341423	-5.065000	161.476761
-25.341423	-5.065000	142.799057
-24.341423	-5.065000	179.540131
-23.341423	-5.065000	177.322601
-22.341423	-5.065000	169.346848
-21.341423	-5.065000	161.729950
-20.341423	-5.065000	112.307861
-19.341423	-5.065000	361.809235
-18.341423	-5.065000	940.949829
-17.341423	-5.065000	41.414787
-16.341423	-5.065000	172.005249
-15.341423	-5.065000	163.270126
-14.341423	-5.065000	171.397385
-13.341423	-5.065000	170.605652
-12.341423	-5.065000	157.138031
-11.341423	-5.065000	136.550339
-10.341423	-5.065000	173.323212
-9.341423	-5.065000	169.800171
-8.341423	-5.065000	171.143936
-7.341423	-5.065000	166.395096
-6.341423	-5.065000	171.326080
-5.341423	-5.065000	183.430756
-4.341423	-5.065000	688.776062
-3.341423	-5.065000	178.825974
-2.341423	-5.065000	156.595428
-1.341423	-5.065000	160.783203
-0.341423	-5.065000	189.822128
0.658577	-5.065000	170.155884
1.658577	-5.065000	162.441635
2.658577	-5.065000	141.724716
3.658577	-5.065000	176.806213
4.658577	-5.065000	160.665909
5.658577	-5.065000	144.223923
6.658577	-5.065000	129.257156
7.658577	-5.065000	148.356537
8.658577	-5.065000	133.988892
9.658577	-5.065000	145.497528
10.658577	-5.065000	158.718033
11.658577	-5.065000	165.190948
12.658577	-5.065000	171.381958
13.658577	-5.065000	156.939957
14.658577	-5.065000	146.145203
15.658577	-5.065000	161.547333
16.658577	-5.065000	168.087357
17.658577	-5.065000	169.441193
18.658577	-5.065000	96.377190
19.658577	-5.065000	95.400536
20.658577	-5.065000	102.146088
21.658577	-5.065000	76.687851
22.658577	-5.065000	125.683342
23.658577	-5.065000	112.533997
24.658577	-5.065000	105.670372
-39.341423	-4.065000	171.180557
-38.341423	-4.065000	178.276718
-37.341423	-4.065000	127.588142
-36.341423	-4.065000	111.476181
-35.341423	-4.065000	141.350067
-34.341423	-4.065000	132.401764
-33.341423	-4.065000	154.056229
-32.341423	-4.065000	155.819489
-31.341423	-4.065000	179.789505
-30.341423	-4.065000	192.024628
-29.341423	-4.065000	170.761505
-28.341423	-4.065000	172.187729
-27.341423	-4.065000	159.838089
-26.341423	-4.065000	157.579910
-25.341423	-4.065000	168.229919
-24.341423	-4.065000	168.787064
-23.341423	-4.065000	185.566696
-22.341423	-4.065000	180.548508
-21.341423	-4.065000	160.626694
-20.341423	-4.065000	166.826904
-19.341423	-4.065000	196.396194
-18.341423	-4.065000	152.481522
-17.341423	-4.065000	118.107544
-16.341423	-4.065000	181.985413
-15.341423	-4.065000	185.799988
-14.341423	-4.065000	170.561752
-13.341423	-4.065000	137.129715
-12.341423	-4.065000	165.212479
-11.341423	-4.065000	143.383331
-10.341423	-4.065000	137.914230
-9.341423	-4.065000	156.512909
-8.341423	-4.065000	134.578018
-7.341423	-4.065000	159.354675
-6.341423	-4.065000	145.415176
-5.341423	-4.065000	157.739426
-4.341423	-4.065000	92.737701
-3.341423	-4.065000	1213.674316
-2.341423	-4.065000	77.669846
-1.341423	-4.065000	155.027054
-0.341423	-4.065000	183.641205
0.658577	-4.065000	163.564682
1.658577	-4.065000	120.165726
2.658577	-4.065000	673.891724
3.658577	-4.065000	228.866913
4.658577	-4.065000	180.802490
5.658577	-4.065000	187.893738
6.658577	-4.065000	159.525620
7.658577	-4.065000	186.194809
8.658577	-4.065000	183.202469
9.658577	-4.065000	176.860367
10.658577	-4.065000	179.659180
11.658577	-4.065000	125.022247
12.658577	-4.065000	151.955505
13.658577	-4.065000	183.966034
14.658577	-4.065000	182.409363
15.658577	-4.065000	194.248901
16.658577	-4.065000	190.319336
17.658577	-4.065000	136.144211
18.658577	-4.065000	150.253555
19.658577	-4.065000	121.194580
20.658577	-4.065000	136.989365
21.658577	-4.065000	137.213409
22.658577	-4.065000	112.366394
23.658577	-4.065000	138.342148
24.658577	-4.065000	106.373489
-39.341423	-3.065000	1781.735718
-38.341423	-3.065000	86.263779
-37.341423	-3.065000	130.431137
-36.341423	-3.065000	118.439461
-35.341423	-3.065000	131.287231
-34.341423	-3.065000	150.991608
-33.341423	-3.065000	164.704773
-32.341423	-3.065000	170.253403
-31.341423	-3.065000	166.740891
-30.341423	-3.065000	158.891846
-29.341423	-3.065000	121.136299
-28.341423	-3.065000	172.913116
-27.341423	-3.065000	141.103928
-26.341423	-3.065000	170.673309
-25.341423	-3.065000	146.435364
-24.341423	-3.065000	169.884995
-23.341423	-3.065000	178.862534
-22.341423	-3.065000	154.821136
-21.341423	-3.065000	158.405258
-20.341423	-3.065000	168.211166
-19.341423	-3.065000	149.232590
-18.341423	-3.065000	148.078613
-17.341423	-3.065000	170.347610
-16.341423	-3.065000	169.082642
-15.341423	-3.065000	177.267456
-14.341423	-3.065000	164.893723
-13.341423	-3.065000	169.962830
-12.341423	-3.065000	134.945923
-11.341423	-3.065000	134.790192
-10.341423	-3.065000	167.211624
-9.341423	-3.065000	140.904099
-8.341423	-3.065000	151.379654
-7.341423	-3.065000	118.020470
-6.341423	-3.065000	131.390625
-5.341423	-3.065000	134.075867
-4.341423	-3.065000	85.809570
-3.341423	-3.065000	149.539734
-2.341423	-3.065000	194.160416
-1.341423	-3.065000	135.639313
-0.341423	-3.065000	151.708557
0.658577	-3.065000	167.524033
1.658577	-3.065000	175.494797
2.658577	-3.065000	208.220779
3.658577	-3.065000	183.885208
4.658577	-3.065000	98.166847
5.658577	-3.065000	103.707870
6.658577	-3.065000	148.211227
7.658577	-3.065000	155.273239
8.658577	-3.065000	169.531418
9.658577	-3.065000	160.244415
10.658577	-3.065000	168.904846
11.658577	-3.065000	184.271484
12.658577	-3.065000	153.991791
13.658577	-3.065000	150.081070
14.658577	-3.065000	194.176407
15.658577	-3.065000	166.977448
16.658577	-3.065000	149.208664
17.658577	-3.065000	139.878586
18.658577	-3.065000	140.364975
19.658577	-3.065000	89.181503
20.658577	-3.065000	100.020157
21.658577	-3.065000	106.492317
22.658577	-3.065000	82.695808
23.658577	-3.065000	93.617332
24.658577	-3.065000	142.118683
-39.341423	-2.065000	514.082397
-38.341423	-2.065000	188.965500
-37.341423	-2.065000	154.961243
-36.341423	-2.065000	133.735062
-35.341423	-2.065000	161.700897
-34.341423	-2.065000	183.009171
-33.341423	-2.065000	172.880737
-32.341423	-2.065000	121.296753
-31.341423	-2.065000	139.258209
-30.341423	-2.065000	157.246292
-29.341423	-2.065000	120.718750
-28.341423	-2.065000	1966.189087
-27.341423	-2.065000	155.094315
-26.341423	-2.065000	159.307861
-25.341423	-2.065000	138.936066
-24.341423	-2.065000	162.169144
-23.341423	-2.065000	138.596588
-22.341423	-2.065000	170.891251
-21.341423	-2.065000	168.260895
-20.341423	-2.065000	149.166992
-19.341423	-2.065000	169.417175
-18.341423	-2.065000	188.469284
-17.341423	-2.065000	114.197563
-16.341423	-2.065000	131.102798
-15.341423	-2.065000	178.063660
-14.341423	-2.065000	181.623306
-13.341423	-2.065000	163.281158
-12.341423	-2.065000	151.181976
-11.341423	-2.065000	145.089279
-10.341423	-2.065000	160.389114
-9.341423	-2.065000	131.418533
-8.341423	-2.065000	136.839310
-7.341423	-2.065000	129.707367
-6.341423	-2.065000	134.927933
-5.341423	-2.065000	128.142303
-4.341423	-2.065000	133.092255
-3.341423	-2.065000	94.159668
-2.341423	-2.065000	155.781494
-1.341423	-2.065000	164.373184
-0.341423	-2.065000	145.263931
0.658577	-2.065000	184.107620
1.658577	-2.065000	188.642578
2.658577	-2.065000	108.796089
3.658577	-2.065000	167.382843
4.658577	-2.065000	139.781921
5.658577	-2.065000	161.977386
6.658577	-2.065000	167.451614
7.658577	-2.065000	160.493698
8.658577	-2.065000	162.167374
9.658577	-2.065000	182.271912
10.658577	-2.065000	118.133148
11.658577	-2.065000	106.733116
12.658577	-2.065000	139.875671
13.658577	-2.065000	137.915375
14.658577	-2.065000	167.076904
15.658577	-2.065000	148.121262
16.658577	-2.065000	132.044556
17.658577	-2.065000	112.735352
18.658577	-2.065000	166.821030
19.658577	-2.065000	109.701073
20.658577	-2.065000	110.467697
21.658577	-2.065000	98.694649
22.658577	-2.065000	73.342133
23.658577	-2.065000	89.166573
24.658577	-2.065000	85.119354
-39.341423	-1.065000	95.519020
-38.341423	-1.065000	73.880188
-37.341423	-1.065000	142.210388
-36.341423	-1.065000	101.312119
-35.341423	-1.065000	109.823242
-34.341423	-1.065000	81.233147
-33.341423	-1.065000	181.717300
-32.341423	-1.065000	138.919769
-31.341423	-1.065000	132.473770
-30.341423	-1.065000	129.493088
-29.341423	-1.065000	119.064850
-28.341423	-1.065000	9.286110
-27.341423	-1.065000	235.977570
-26.341423	-1.065000	166.080368
-25.341423	-1.065000	158.335175
-24.341423	-1.065000	169.715363
-23.341423	-1.065000	164.095291
-22.341423	-1.065000	184.802811
-21.341423	-1.065000	170.627426
-20.341423	-1.065000	129.417938
-19.341423	-1.065000	153.501190
-18.341423	-1.065000	117.154121
-17.341423	-1.065000	122.309326
-16.341423	-1.065000	103.911087
-15.341423	-1.065000	162.535675
-14.341423	-1.065000	181.687241
-13.341423	-1.065000	157.328247
-12.341423	-1.065000	145.333862
-11.341423	-1.065000	147.693466
-10.341423	-1.065000	156.004364
-9.341423	-1.065000	136.732803
-8.341423	-1.065000	153.970139
-7.341423	-1.065000	131.253998
-6.341423	-1.065000	125.201813
-5.341423	-1.065000	161.275131
-4.341423	-1.065000	128.059708
-3.341423	-1.065000	84.343300
-2.341423	-1.065000	128.822098
-1.341423	-1.065000	147.143967
-0.341423	-1.065000	141.800613
0.658577	-1.065000	164.365021
1.658577	-1.065000	174.332245
2.658577	-1.065000	169.225464
3.658577	-1.065000	137.284882
4.658577	-1.065000	100.287827
5.658577	-1.065000	153.179611
6.658577	-1.065000	165.689056
7.658577	-1.065000	172.801392
8.658577	-1.065000	152.550583
9.658577	-1.065000	166.199478
10.658577	-1.065000	119.541061
11.658577	-1.065000	162.928543
12.658577	-1.065000	153.946182
13.658577	-1.065000	149.450241
14.658577	-1.065000	181.677826
15.658577	-1.065000	168.504242
16.658577	-1.065000	138.193268
17.658577	-1.065000	130.729584
18.658577	-1.065000	171.961868
19.658577	-1.065000	121.905991
20.658577	-1.065000	175.441467
21.658577	-1.065000	170.247498
22.658577	-1.065000	105.309875
23.658577	-1.065000	102.417969
24.658577	-1.065000	91.804245
-39.341423	-0.065000	63.745876
-38.341423	-0.065000	66.937073
-37.341423	-0.065000	53.812302
-36.341423	-0.065000	60.921005
-35.341423	-0.065000	45.488873
-34.341423	-0.065000	103.364937
-33.341423	-0.065000	125.254440
-32.341423	-0.065000	104.763649
-31.341423	-0.065000	103.098831
-30.341423	-0.065000	77.462952
-29.341423	-0.065000	114.057777
-28.341423	-0.065000	2442.587891
-27.341423	-0.065000	14.480218
-26.341423	-0.065000	197.797043
-25.341423	-0.065000	174.324188
-24.341423	-0.065000	150.862640
-23.341423	-0.065000	179.886566
-22.341423	-0.065000	175.444809
-21.341423	-0.065000	138.707184
-20.341423	-0.065000	174.647293
-19.341423	-0.065000	180.103027
-18.341423	-0.065000	162.003403
-17.341423	-0.065000	99.578873
-16.341423	-0.065000	128.355698
-15.341423	-0.065000	154.249695
-14.341423	-0.065000	156.033463
-13.341423	-0.065000	158.198181
-12.341423	-0.065000	162.333618
-11.341423	-0.065000	163.161301
-10.341423	-0.065000	153.446915
-9.341423	-0.065000	128.230118
-8.341423	-0.065000	139.864594
-7.341423	-0.065000	128.351212
-6.341423	-0.065000	133.940201
-5.341423	-0.065000	164.364777
-4.341423	-0.065000	154.769440
-3.341423	-0.065000	168.554993
-2.341423	-0.065000	163.145950
-1.341423	-0.065000	180.091965
-0.341423	-0.065000	150.324646
0.658577	-0.065000	142.951233
1.658577	-0.065000	165.541718
2.658577	-0.065000	148.990158
3.658577	-0.065000	94.671715
4.658577	-0.065000	101.949554
5.658577	-0.065000	145.184372
6.658577	-0.065000	162.032578
7.658577	-0.065000	177.432541
8.658577	-0.065000	174.873444
9.658577	-0.065000	172.519394
10.658577	-0.065000	175.561081
11.658577	-0.065000	190.325378
12.658577	-0.065000	135.958878
13.658577	-0.065000	132.313293
14.658577	-0.065000	157.024796
15.658577	-0.065000	146.090439
16.658577	-0.065000	150.976410
17.658577	-0.065000	142.446045
18.658577	-0.065000	181.281509
19.658577	-0.065000	170.827942
20.658577	-0.065000	159.891891
21.658577	-0.065000	147.557571
22.658577	-0.065000	145.702942
23.658577	-0.065000	88.249275
24.658577	-0.065000	97.831787
-39.341423	0.935000	57.366188
-38.341423	0.935000	51.281864
-37.341423	0.935000	57.626263
-36.341423	0.935000	50.876137
-35.341423	0.935000	96.587677
-34.341423	0.935000	94.168434
-33.341423	0.935000	140.870712
-32.341423	0.935000	129.972672
-31.341423	0.935000	145.699615
-30.341423	0.935000	98.718803
-29.341423	0.935000	88.175461
-28.341423	0.935000	35.369732
-27.341423	0.935000	177.432755
-26.341423	0.935000	192.982468
-25.341423	0.935000	145.348663
-24.341423	0.935000	147.296692
-23.341423	0.935000	155.813385
-22.341423	0.935000	170.717804
-21.341423	0.935000	188.425293
-20.341423	0.935000	199.410400
-19.341423	0.935000	173.797699
-18.341423	0.935000	135.975677
-17.341423	0.935000	124.830185
-16.341423	0.935000	97.519150
-15.341423	0.935000	175.522064
-14.341423	0.935000	127.882103
-13.341423	0.935000	161.015656
-12.341423	0.935000	134.550659
-11.341423	0.935000	137.810562
-10.341423	0.935000	167.119247
-9.341423	0.935000	152.246246
-8.341423	0.935000	137.936676
-7.341423	0.935000	130.895493
-6.341423	0.935000	148.934753
-5.341423	0.935000	134.776840
-4.341423	0.935000	174.619843
-3.341423	0.935000	182.938934
-2.341423	0.935000	174.781784
-1.341423	0.935000	172.663223
-0.341423	0.935000	172.394165
0.658577	0.935000	173.675446
1.658577	0.935000	179.122025
2.658577	0.935000	102.008835
3.658577	0.935000	103.968903
4.658577	0.935000	135.386322
5.658577	0.935000	164.699295
6.658577	0.935000	129.447784
7.658577	0.935000	154.608170
8.658577	0.935000	159.670685
9.658577	0.935000	166.742706
10.658577	0.935000	168.909622
11.658577	0.935000	156.008377
12.658577	0.935000	172.897522
13.658577	0.935000	176.446259
14.658577	0.935000	163.402161
15.658577	0.935000	161.528244
16.658577	0.935000	165.854782
17.658577	0.935000	185.041275
18.658577	0.935000	184.730057
19.658577	0.935000	134.695206
20.658577	0.935000	163.584244
21.658577	0.935000	159.611328
22.658577	0.935000	170.350815
23.658577	0.935000	168.436279
24.658577	0.935000	98.508057
-39.341423	1.935000	73.884956
-38.341423	1.935000	66.071800
-37.341423	1.935000	77.757301
-36.341423	1.935000	149.085144
-35.341423	1.935000	172.536850
-34.341423	1.935000	106.667282
-33.341423	1.935000	153.771774
-32.341423	1.935000	173.530075
-31.341423	1.935000	145.203369
-30.341423	1.935000	132.554749
-29.341423	1.935000	165.132462
-28.341423	1.935000	154.187683
-27.341423	1.935000	227.858185
-26.341423	1.935000	179.482925
-25.341423	1.935000	145.969879
-24.341423	1.935000	106.707733
-23.341423	1.935000	133.622665
-22.341423	1.935000	150.935623
-21.341423	1.935000	185.998871
-20.341423	1.935000	192.088364
-19.341423	1.935000	209.370880
-18.341423	1.935000	108.611214
-17.341423	1.935000	107.496414
-16.341423	1.935000	157.493179
-15.341423	1.935000	176.242218
-14.341423	1.935000	177.822159
-13.341423	1.935000	178.972000
-12.341423	1.935000	152.923569
-11.341423	1.935000	166.752533
-10.341423	1.935000	161.227448
-9.341423	1.935000	150.999649
-8.341423	1.935000	151.237778
-7.341423	1.935000	147.529907
-6.341423	1.935000	145.685501
-5.341423	1.935000	168.112350
-4.341423	1.935000	148.810562
-3.341423	1.935000	182.563156
-2.341423	1.935000	168.966232
-1.341423	1.935000	176.599426
-0.341423	1.935000	181.481415
0.658577	1.935000	147.982285
1.658577	1.935000	115.949120
2.658577	1.935000	107.641975
3.658577	1.935000	108.216263
4.658577	1.935000	125.838799
5.658577	1.935000	165.450333
6.658577	1.935000	181.163666
7.658577	1.935000	181.621719
8.658577	1.935000	170.694061
9.658577	1.935000	138.097824
10.658577	1.935000	148.378876
11.658577	1.935000	154.355820
12.658577	1.935000	137.638351
13.658577	1.935000	142.055588
14.658577	1.935000	167.622513
15.658577	1.935000	148.036575
16.658577	1.935000	139.712082
17.658577	1.935000	186.536636
18.658577	1.935000	175.852509
19.658577	1.935000	180.911484
20.658577	1.935000	176.451080
21.658577	1.935000	148.945313
22.658577	1.935000	164.389191
23.658577	1.935000	168.236954
24.658577	1.935000	173.053574
-39.341423	2.935000	76.270988
-38.341423	2.935000	135.635132
-37.341423	2.935000	177.760849
-36.341423	2.935000	156.593597
-35.341423	2.935000	164.930496
-34.341423	2.935000	82.572098
-33.341423	2.935000	131.783630
-32.341423	2.935000	167.341751
-31.341423	2.935000	131.316162
-30.341423	2.935000	146.105637
-29.341423	2.935000	174.064423
-28.341423	2.935000	189.597092
-27.341423	2.935000	168.462234
-26.341423	2.935000	193.849014
-25.341423	2.935000	171.497894
-24.341423	2.935000	112.591507
-23.341423	2.935000	110.131714
-22.341423	2.935000	120.846153
-21.341423	2.935000	167.685852
-20.341423	2.935000	185.042877
-19.341423	2.935000	143.719910
-18.341423	2.935000	192.001190
-17.341423	2.935000	113.776230
-16.341423	2.935000	1492.544312
-15.341423	2.935000	334.488617
-14.341423	2.935000	173.955322
-13.341423	2.935000	202.863922
-12.341423	2.935000	180.301437
-11.341423	2.935000	176.944229
-10.341423	2.935000	153.960968
-9.341423	2.935000	168.146988
-8.341423	2.935000	166.401047
-7.341423	2.935000	148.878784
-6.341423	2.935000	156.813385
-5.341423	2.935000	139.198029
-4.341423	2.935000	148.098312
-3.341423	2.935000	174.864166
-2.341423	2.935000	144.394852
-1.341423	2.935000	182.458954
-0.341423	2.935000	164.542587
0.658577	2.935000	166.450897
1.658577	2.935000	143.420868
2.658577	2.935000	137.181427
3.658577	2.935000	134.849884
4.658577	2.935000	132.516098
5.658577	2.935000	162.138931
6.658577	2.935000	165.101257
7.658577	2.935000	175.409393
8.658577	2.935000	176.987701
9.658577	2.935000	158.042374
10.658577	2.935000	133.875534
11.658577	2.935000	129.983231
12.658577	2.935000	134.600235
13.658577	2.935000	138.085739
14.658577	2.935000	178.455414
15.658577	2.935000	164.557358
16.658577	2.935000	122.545578
17.658577	2.935000	164.098434
18.658577	2.935000	194.914627
19.658577	2.935000	120.059738
20.658577	2.935000	170.876831
21.658577	2.935000	159.793274
22.658577	2.935000	157.653519
23.658577	2.935000	172.152130
24.658577	2.935000	143.074280
-39.341423	3.935000	154.196976
-38.341423	3.935000	160.456680
-37.341423	3.935000	163.084305
-36.341423	3.935000	121.141556
-35.341423	3.935000	148.653946
-34.341423	3.935000	110.890945
-33.341423	3.935000	110.939407
-32.341423	3.935000	147.827713
-31.341423	3.935000	145.108398
-30.341423	3.935000	167.099808
-29.341423	3.935000	171.561111
-28.341423	3.935000	172.179306
-27.341423	3.935000	166.913452
-26.341423	3.935000	163.177353
-25.341423	3.935000	171.146530
-24.341423	3.935000	135.234497
-23.341423	3.935000	105.696487
-22.341423	3.935000	132.873276
-21.341423	3.935000	130.322479
-20.341423	3.935000	179.130661
-19.341423	3.935000	160.612427
-18.341423	3.935000	165.479584
-17.341423	3.935000	170.037598
-16.341423	3.935000	77.144455
-15.341423	3.935000	215.794296
-14.341423	3.935000	41.828190
-13.341423	3.935000	123.452881
-12.341423	3.935000	147.726425
-11.341423	3.935000	120.665337
-10.341423	3.935000	170.394272
-9.341423	3.935000	128.506088
-8.341423	3.935000	116.015884
-7.341423	3.935000	125.883934
-6.341423	3.935000	178.424545
-5.341423	3.935000	170.271622
-4.341423	3.935000	176.429901
-3.341423	3.935000	180.124557
-2.341423	3.935000	167.407364
-1.341423	3.935000	137.511932
-0.341423	3.935000	149.406937
0.658577	3.935000	178.807968
1.658577	3.935000	187.284653
2.658577	3.935000	166.092743
3.658577	3.935000	148.144501
4.658577	3.935000	127.095665
5.658577	3.935000	156.847244
6.658577	3.935000	173.141693
7.658577	3.935000	164.995483
8.658577	3.935000	184.318283
9.658577	3.935000	162.392120
10.658577	3.935000	146.499313
11.658577	3.935000	140.953049
12.658577	3.935000	119.671654
13.658577	3.935000	146.944229
14.658577	3.935000	177.706131
15.658577	3.935000	135.008163
16.658577	3.935000	137.333771
17.658577	3.935000	141.543915
18.658577	3.935000	144.551910
19.658577	3.935000	145.160324
20.658577	3.935000	145.642700
21.658577	3.935000	169.076920
22.658577	3.935000	174.720520
23.658577	3.935000	137.825500
24.658577	3.935000	117.586182
-39.341423	4.935000	139.308884
-38.341423	4.935000	148.012558
-37.341423	4.935000	145.120224
-36.341423	4.935000	171.270111
-35.341423	4.935000	166.258698
-34.341423	4.935000	150.355896
-33.341423	4.935000	148.821625
-32.341423	4.935000	143.397141
-31.341423	4.935000	144.692184
-30.341423	4.935000	150.796234
-29.341423	4.935000	172.898605
-28.341423	4.935000	170.249741
-27.341423	4.935000	166.711960
-26.341423	4.935000	122.055489
-25.341423	4.935000	169.389160
-24.341423	4.935000	121.931755
-23.341423	4.935000	147.211334
-22.341423	4.935000	133.720062
-21.341423	4.935000	130.338287
-20.341423	4.935000	135.056351
-19.341423	4.935000	150.289078
-18.341423	4.935000	152.007889
-17.341423	4.935000	153.746124
-16.341423	4.935000	150.703751
-15.341423	4.935000	184.306763
-14.341423	4.935000	192.827881
-13.341423	4.935000	257.446136
-12.341423	4.935000	164.937302
-11.341423	4.935000	161.285995
-10.341423	4.935000	129.791458
-9.341423	4.935000	161.040100
-8.341423	4.935000	131.409302
-7.341423	4.935000	135.245102
-6.341423	4.935000	120.142921
-5.341423	4.935000	134.652969
-4.341423	4.935000	199.086609
-3.341423	4.935000	146.060226
-2.341423	4.935000	133.424576
-1.341423	4.935000	139.246704
-0.341423	4.935000	133.647034
0.658577	4.935000	139.974930
1.658577	4.935000	166.265320
2.658577	4.935000	185.965714
3.658577	4.935000	128.265533
4.658577	4.935000	154.283798
5.658577	4.935000	164.293121
6.658577	4.935000	126.257065
7.658577	4.935000	149.585938
8.658577	4.935000	181.122177
9.658577	4.935000	187.224335
10.658577	4.935000	156.267609
11.658577	4.935000	160.861710
12.658577	4.935000	126.607315
13.658577	4.935000	138.993820
14.658577	4.935000	170.350128
15.658577	4.935000	129.554260
16.658577	4.935000	171.470840
17.658577	4.935000	169.004242
18.658577	4.935000	136.734787
19.658577	4.935000	136.451309
20.658577	4.935000	141.918839
21.658577	4.935000	194.237122
22.658577	4.935000	146.318100
23.658577	4.935000	172.671570
24.658577	4.935000	148.454544
-39.341423	5.935000	174.436020
-38.341423	5.935000	159.418076
-37.341423	5.935000	128.723740
-36.341423	5.935000	161.856293
-35.341423	5.935000	158.994019
-34.341423	5.935000	161.053223
-33.341423	5.935000	136.659119
-32.341423	5.935000	159.135025
-31.341423	5.935000	177.644379
-30.341423	5.935000	133.736023
-29.341423	5.935000	140.986237
-28.341423	5.935000	158.605591
-27.341423	5.935000	163.438507
-26.341423	5.935000	173.953964
-25.341423	5.935000	182.993835
-24.341423	5.935000	164.287369
-23.341423	5.935000	149.426132
-22.341423	5.935000	108.215660
-21.341423	5.935000	147.087891
-20.341423	5.935000	150.357285
-19.341423	5.935000	139.509979
-18.341423	5.935000	144.794861
-17.341423	5.935000	117.936050
-16.341423	5.935000	154.122314
-15.341423	5.935000	164.201904
-14.341423	5.935000	171.505798
-13.341423	5.935000	144.940506
-12.341423	5.935000	139.341614
-11.341423	5.935000	172.422211
-10.341423	5.935000	176.443008
-9.341423	5.935000	126.641228
-8.341423	5.935000	156.207382
-7.341423	5.935000	95.675613
-6.341423	5.935000	151.691132
-5.341423	5.935000	105.212166
-4.341423	5.935000	175.365356
-3.341423	5.935000	171.851044
-2.341423	5.935000	152.295731
-1.341423	5.935000	155.464539
-0.341423	5.935000	144.149124
0.658577	5.935000	141.104248
1.658577	5.935000	147.071274
2.658577	5.935000	145.255722
3.658577	5.935000	176.352524
4.658577	5.935000	144.565887
5.658577	5.935000	146.320999
6.658577	5.935000	130.000214
7.658577	5.935000	136.735886
8.658577	5.935000	128.998871
9.658577	5.935000	165.552673
10.658577	5.935000	183.251297
11.658577	5.935000	146.913086
12.658577	5.935000	136.152893
13.658577	5.935000	130.991348
14.658577	5.935000	154.406784
15.658577	5.935000	147.130661
16.658577	5.935000	193.646957
17.658577	5.935000	162.649673
18.658577	5.935000	171.817368
19.658577	5.935000	170.101044
20.658577	5.935000	176.498840
21.658577	5.935000	190.976715
22.658577	5.935000	174.633209
23.658577	5.935000	166.045151
24.658577	5.935000	133.181229
-39.341423	6.935000	167.153076
-38.341423	6.935000	132.007858
-37.341423	6.935000	170.255478
-36.341423	6.935000	132.937042
-35.341423	6.935000	162.473541
-34.341423	6.935000	151.488037
-33.341423	6.935000	160.334290
-32.341423	6.935000	163.644653
-31.341423	6.935000	132.144028
-30.341423	6.935000	157.635223
-29.341423	6.935000	156.732971
-28.341423	6.935000	49.172771
-27.341423	6.935000	130.509094
-26.341423	6.935000	126.257416
-25.341423	6.935000	174.761185
-24.341423	6.935000	150.300385
-23.341423	6.935000	141.397186
-22.341423	6.935000	109.248795
-21.341423	6.935000	118.684456
-20.341423	6.935000	128.148849
-19.341423	6.935000	138.577423
-18.341423	6.935000	147.426651
-17.341423	6.935000	138.809830
-16.341423	6.935000	145.844223
-15.341423	6.935000	163.239166
-14.341423	6.935000	158.382629
-13.341423	6.935000	147.700958
-12.341423	6.935000	164.544556
-11.341423	6.935000	138.072952
-10.341423	6.935000	141.726883
-9.341423	6.935000	159.182831
-8.341423	6.935000	181.855225
-7.341423	6.935000	132.823761
-6.341423	6.935000	120.230537
-5.341423	6.935000	157.438873
-4.341423	6.935000	144.343079
-3.341423	6.935000	145.834946
-2.341423	6.935000	157.035370
-1.341423	6.935000	135.920837
-0.341423	6.935000	153.462006
0.658577	6.935000	143.635513
1.658577	6.935000	168.740967
2.658577	6.935000	169.720642
3.658577	6.935000	134.438797
4.658577	6.935000	169.384171
5.658577	6.935000	122.705482
6.658577	6.935000	161.380066
7.658577	6.935000	132.947769
8.658577	6.935000	124.800842
9.658577	6.935000	130.011795
10.658577	6.935000	138.575439
11.658577	6.935000	147.521271
12.658577	6.935000	160.622849
13.658577	6.935000	174.133224
14.658577	6.935000	194.554688
15.658577	6.935000	184.476120
16.658577	6.935000	210.925781
17.658577	6.935000	187.071686
18.658577	6.935000	166.390213
19.658577	6.935000	145.814651
20.658577	6.935000	174.700943
21.658577	6.935000	179.863968
22.658577	6.935000	166.316483
23.658577	6.935000	170.764664
24.658577	6.935000	162.892700
-39.341423	7.935000	172.559830
-38.341423	7.935000	174.772110
-37.341423	7.935000	172.719467
-36.341423	7.935000	169.776764
-35.341423	7.935000	153.401123
-34.341423	7.935000	163.995026
-33.341423	7.935000	151.327194
-32.341423	7.935000	155.545776
-31.341423	7.935000	139.208099
-30.341423	7.935000	159.132858
-29.341423	7.935000	163.576294
-28.341423	7.935000	127.340912
-27.341423	7.935000	114.507362
-26.341423	7.935000	113.620216
-25.341423	7.935000	145.951584
-24.341423	7.935000	128.772781
-23.341423	7.935000	136.016205
-22.341423	7.935000	101.376785
-21.341423	7.935000	102.929306
-20.341423	7.935000	143.775452
-19.341423	7.935000	151.456497
-18.341423	7.935000	166.181717
-17.341423	7.935000	176.801529
-16.341423	7.935000	173.779892
-15.341423	7.935000	174.794006
-14.341423	7.935000	150.561584
-13.341423	7.935000	136.850388
-12.341423	7.935000	160.113785
-11.341423	7.935000	143.074936
-10.341423	7.935000	148.545959
-9.341423	7.935000	138.726471
-8.341423	7.935000	116.829529
-7.341423	7.935000	160.504044
-6.341423	7.935000	142.890411
-5.341423	7.935000	162.091660
-4.341423	7.935000	159.255798
-3.341423	7.935000	118.808197
-2.341423	7.935000	140.426682
-1.341423	7.935000	151.557907
-0.341423	7.935000	168.884277
0.658577	7.935000	142.791595
1.658577	7.935000	186.395935
2.658577	7.935000	189.033661
3.658577	7.935000	154.023666
4.658577	7.935000	145.931015
5.658577	7.935000	96.798820
6.658577	7.935000	86.828209
7.658577	7.935000	127.712051
8.658577	7.935000	156.386566
9.658577	7.935000	140.357788
10.658577	7.935000	146.396927
11.658577	7.935000	149.115784
12.658577	7.935000	116.987022
13.658577	7.935000	188.544785
14.658577	7.935000	182.183395
15.658577	7.935000	187.320114
16.658577	7.935000	147.910812
17.658577	7.935000	172.955292
18.658577	7.935000	163.476593
19.658577	7.935000	156.345535
20.658577	7.935000	175.102814
21.658577	7.935000	168.888901
22.658577	7.935000	178.082764
23.658577	7.935000	173.400223
24.658577	7.935000	176.646683
-39.341423	8.935000	141.500763
-38.341423	8.935000	148.971146
-37.341423	8.935000	157.878754
-36.341423	8.935000	158.776276
-35.341423	8.935000	158.360443
-34.341423	8.935000	165.646545
-33.341423	8.935000	161.211884
-32.341423	8.935000	166.531570
-31.341423	8.935000	155.183456
-30.341423	8.935000	144.569504
-29.341423	8.935000	164.668259
-28.341423	8.935000	159.199890
-27.341423	8.935000	158.243530
-26.341423	8.935000	131.407089
-25.341423	8.935000	159.604996
-24.341423	8.935000	120.813622
-23.341423	8.935000	111.247978
-22.341423	8.935000	119.548851
-21.341423	8.935000	108.798462
-20.341423	8.935000	133.613083
-19.341423	8.935000	153.652512
-18.341423	8.935000	160.808502
-17.341423	8.935000	183.065598
-16.341423	8.935000	174.054260
-15.341423	8.935000	142.613617
-14.341423	8.935000	141.853027
-13.341423	8.935000	162.083221
-12.341423	8.935000	170.675827
-11.341423	8.935000	127.922966
-10.341423	8.935000	119.251198
-9.341423	8.935000	129.269806
-8.341423	8.935000	120.491692
-7.341423	8.935000	131.042252
-6.341423	8.935000	170.512268
-5.341423	8.935000	141.118347
-4.341423	8.935000	126.342010
-3.341423	8.935000	147.122299
-2.341423	8.935000	170.659592
-1.341423	8.935000	137.131729
-0.341423	8.935000	144.536865
0.658577	8.935000	159.307449
1.658577	8.935000	160.970139
2.658577	8.935000	168.995987
3.658577	8.935000	72.693703
4.658577	8.935000	152.736725
5.658577	8.935000	90.347443
6.658577	8.935000	77.982964
7.658577	8.935000	93.399727
8.658577	8.935000	91.345398
9.658577	8.935000	156.095413
10.658577	8.935000	138.796524
11.658577	8.935000	106.720757
12.658577	8.935000	160.489365
13.658577	8.935000	179.329498
14.658577	8.935000	193.289764
15.658577	8.935000	145.997314
16.658577	8.935000	246.863098
17.658577	8.935000	172.211395
18.658577	8.935000	195.086578
19.658577	8.935000	582.210022
20.658577	8.935000	197.337418
21.658577	8.935000	104.631531
22.658577	8.935000	190.570984
23.658577	8.935000	108.872353
24.658577	8.935000	165.120193
-39.341423	9.935000	162.275558
-38.341423	9.935000	167.931885
-37.341423	9.935000	164.667908
-36.341423	9.935000	164.976669
-35.341423	9.935000	188.076065
-34.341423	9.935000	133.467041
-33.341423	9.935000	167.757584
-32.341423	9.935000	127.900932
-31.341423	9.935000	129.239578
-30.341423	9.935000	164.224152
-29.341423	9.935000	152.647217
-28.341423	9.935000	174.464386
-27.341423	9.935000	169.293884
-26.341423	9.935000	137.341782
-25.341423	9.935000	156.801651
-24.341423	9.935000	157.447662
-23.341423	9.935000	150.811539
-22.341423	9.935000	143.105118
-21.341423	9.935000	146.115143
-20.341423	9.935000	142.182373
-19.341423	9.935000	160.752518
-18.341423	9.935000	142.734756
-17.341423	9.935000	181.027130
-16.341423	9.935000	150.755447
-15.341423	9.935000	171.929092
-14.341423	9.935000	170.699677
-13.341423	9.935000	176.127838
-12.341423	9.935000	149.879883
-11.341423	9.935000	130.779541
-10.341423	9.935000	123.865585
-9.341423	9.935000	134.537170
-8.341423	9.935000	145.726624
-7.341423	9.935000	143.807098
-6.341423	9.935000	168.782776
-5.341423	9.935000	140.215179
-4.341423	9.935000	152.965012
-3.341423	9.935000	176.219788
-2.341423	9.935000	167.668762
-1.341423	9.935000	140.693634
-0.341423	9.935000	180.802780
0.658577	9.935000	151.913864
1.658577	9.935000	177.103760
2.658577	9.935000	109.899605
3.658577	9.935000	104.019867
4.658577	9.935000	180.116714
5.658577	9.935000	93.526939
6.658577	9.935000	78.377563
7.658577	9.935000	111.860855
8.658577	9.935000	103.704468
9.658577	9.935000	178.507538
10.658577	9.935000	147.273743
11.658577	9.935000	161.290176
12.658577	9.935000	112.009109
13.658577	9.935000	155.535248
14.658577	9.935000	175.680206
15.658577	9.935000	235.967514
16.658577	9.935000	1330.749268
17.658577	9.935000	260.284241
18.658577	9.935000	425.254852
19.658577	9.935000	1881.087036
20.658577	9.935000	132.398911
21.658577	9.935000	164.058716
22.658577	9.935000	137.854675
23.658577	9.935000	59.756512
24.658577	9.935000	71.709900
-39.341423	10.935000	146.239777
-38.341423	10.935000	157.852829
-37.341423	10.935000	157.038010
-36.341423	10.935000	165.878601
-35.341423	10.935000	159.585373
-34.341423	10.935000	157.312408
-33.341423	10.935000	144.404037
-32.341423	10.935000	160.050262
-31.341423	10.935000	167.878372
-30.341423	10.935000	136.363129
-29.341423	10.935000	141.358170
-28.341423	10.935000	152.536682
-27.341423	10.935000	177.207443
-26.341423	10.935000	157.742706
-25.341423	10.935000	176.091980
-24.341423	10.935000	71.045357
-23.341423	10.935000	147.444458
-22.341423	10.935000	150.708908
-21.341423	10.935000	124.138557
-20.341423	10.935000	175.296478
-19.341423	10.935000	174.936935
-18.341423	10.935000	180.008667
-17.341423	10.935000	178.849640
-16.341423	10.935000	133.730118
-15.341423	10.935000	174.554260
-14.341423	10.935000	194.925644
-13.341423	10.935000	192.576599
-12.341423	10.935000	126.406738
-11.341423	10.935000	114.760101
-10.341423	10.935000	137.849609
-9.341423	10.935000	119.331551
-8.341423	10.935000	124.717285
-7.341423	10.935000	138.206436
-6.341423	10.935000	165.774719
-5.341423	10.935000	143.414871
-4.341423	10.935000	171.357742
-3.341423	10.935000	163.376419
-2.341423	10.935000	160.199036
-1.341423	10.935000	164.663528
-0.341423	10.935000	190.147186
0.658577	10.935000	188.760681
1.658577	10.935000	164.798431
2.658577	10.935000	122.873787
3.658577	10.935000	137.628128
4.658577	10.935000	81.987511
5.658577	10.935000	87.035309
6.658577	10.935000	94.271790
7.658577	10.935000	131.841156
8.658577	10.935000	143.718872
9.658577	10.935000	132.463257
10.658577	10.935000	150.780701
11.658577	10.935000	121.435081
12.658577	10.935000	154.796524
13.658577	10.935000	112.085785
14.658577	10.935000	1869.481567
15.658577	10.935000	1849.908203
16.658577	10.935000	1881.219604
17.658577	10.935000	0.639823
18.658577	10.935000	1823.432739
19.658577	10.935000	0.639823
20.658577	10.935000	175.756271
21.658577	10.935000	176.918045
22.658577	10.935000	177.592773
23.658577	10.935000	138.884094
24.658577	10.935000	179.911392
-39.341423	11.935000	127.627335
-38.341423	11.935000	154.697678
-37.341423	11.935000	129.249725
-36.341423	11.935000	166.122223
-35.341423	11.935000	151.231323
-34.341423	11.935000	156.810944
-33.341423	11.935000	157.691544
-32.341423	11.935000	164.192047
-31.341423	11.935000	139.304993
-30.341423	11.935000	160.478973
-29.341423	11.935000	161.986099
-28.341423	11.935000	173.942978
-27.341423	11.935000	136.650803
-26.341423	11.935000	145.063934
-25.341423	11.935000	144.194260
-24.341423	11.935000	185.557800
-23.341423	11.935000	163.934937
-22.341423	11.935000	155.295761
-21.341423	11.935000	189.990677
-20.341423	11.935000	182.020782
-19.341423	11.935000	167.150131
-18.341423	11.935000	173.627319
-17.341423	11.935000	133.782974
-16.341423	11.935000	132.443893
-15.341423	11.935000	166.013580
-14.341423	11.935000	174.092606
-13.341423	11.935000	135.429092
-12.341423	11.935000	146.393631
-11.341423	11.935000	117.506805
-10.341423	11.935000	108.311836
-9.341423	11.935000	130.407333
-8.341423	11.935000	126.677574
-7.341423	11.935000	156.062592
-6.341423	11.935000	177.920807
-5.341423	11.935000	169.585434
-4.341423	11.935000	162.106171
-3.341423	11.935000	195.757202
-2.341423	11.935000	152.633911
-1.341423	11.935000	184.469788
-0.341423	11.935000	187.630508
0.658577	11.935000	154.574463
1.658577	11.935000	137.669693
2.658577	11.935000	137.854156
3.658577	11.935000	90.512573
4.658577	11.935000	58.388309
5.658577	11.935000	115.352570
6.658577	11.935000	167.888702
7.658577	11.935000	132.810226
8.658577	11.935000	176.788513
9.658577	11.935000	143.757980
10.658577	11.935000	152.187485
11.658577	11.935000	143.139633
12.658577	11.935000	182.411682
13.658577	11.935000	146.908020
14.658577	11.935000	65.553253
15.658577	11.935000	0.639823
16.658577	11.935000	890.635498
17.658577	11.935000	1594.650757
18.658577	11.935000	1617.046143
19.658577	11.935000	8.026901
20.658577	11.935000	146.091766
21.658577	11.935000	150.602386
22.658577	11.935000	185.739792
23.658577	11.935000	185.123810
24.658577	11.935000	185.984161
-39.341423	12.935000	162.950195
-38.341423	12.935000	167.349380
-37.341423	12.935000	154.449738
-36.341423	12.935000	151.835312
-35.341423	12.935000	160.191376
-34.341423	12.935000	156.771729
-33.341423	12.935000	159.006516
-32.341423	12.935000	172.556992
-31.341423	12.935000	169.615417
-30.341423	12.935000	140.102982
-29.341423	12.935000	163.536911
-28.341423	12.935000	172.464615
-27.341423	12.935000	173.438797
-26.341423	12.935000	124.083633
-25.341423	12.935000	107.480133
-24.341423	12.935000	172.886185
-23.341423	12.935000	167.964828
-22.341423	12.935000	175.154724
-21.341423	12.935000	180.499619
-20.341423	12.935000	162.658051
-19.341423	12.935000	160.205963
-18.341423	12.935000	143.325531
-17.341423	12.935000	127.666222
-16.341423	12.935000	143.617188
-15.341423	12.935000	168.736008
-14.341423	12.935000	167.844757
-13.341423	12.935000	151.191910
-12.341423	12.935000	121.205826
-11.341423	12.935000	130.116379
-10.341423	12.935000	125.359924
-9.341423	12.935000	131.240921
-8.341423	12.935000	98.387253
-7.341423	12.935000	144.940933
-6.341423	12.935000	110.603119
-5.341423	12.935000	179.516129
-4.341423	12.935000	168.693527
-3.341423	12.935000	185.311462
-2.341423	12.935000	131.219376
-1.341423	12.935000	169.155487
-0.341423	12.935000	177.919510
0.658577	12.935000	147.418091
1.658577	12.935000	127.300980
2.658577	12.935000	145.052719
3.658577	12.935000	121.576912
4.658577	12.935000	74.190231
5.658577	12.935000	171.236816
6.658577	12.935000	184.646423
7.658577	12.935000	185.138519
8.658577	12.935000	149.214691
9.658577	12.935000	170.358902
10.658577	12.935000	165.295731
11.658577	12.935000	156.118744
12.658577	12.935000	145.806763
13.658577	12.935000	181.055038
14.658577	12.935000	1445.331665
15.658577	12.935000	0.639823
16.658577	12.935000	1581.331055
17.658577	12.935000	0.639823
18.658577	12.935000	2351.897461
19.658577	12.935000	505.072632
20.658577	12.935000	33.029381
21.658577	12.935000	89.926018
22.658577	12.935000	177.255356
23.658577	12.935000	142.829773
24.658577	12.935000	176.738235
-39.341423	13.935000	146.394333
-38.341423	13.935000	165.763962
-37.341423	13.935000	172.485992
-36.341423	13.935000	150.557037
-35.341423	13.935000	126.955826
-34.341423	13.935000	137.244492
-33.341423	13.935000	159.698639
-32.341423	13.935000	170.403152
-31.341423	13.935000	168.793365
-30.341423	13.935000	140.555923
-29.341423	13.935000	145.435425
-28.341423	13.935000	150.040237
-27.341423	13.935000	132.984360
-26.341423	13.935000	143.892014
-25.341423	13.935000	122.723877
-24.341423	13.935000	157.131485
-23.341423	13.935000	138.037125
-22.341423	13.935000	149.118225
-21.341423	13.935000	159.561554
-20.341423	13.935000	109.924789
-19.341423	13.935000	138.906265
-18.341423	13.935000	158.275955
-17.341423	13.935000	158.741989
-16.341423	13.935000	132.611557
-15.341423	13.935000	169.917755
-14.341423	13.935000	174.683624
-13.341423	13.935000	184.466110
-12.341423	13.935000	135.578445
-11.341423	13.935000	156.987030
-10.341423	13.935000	168.929443
-9.341423	13.935000	194.638199
-8.341423	13.935000	91.145096
-7.341423	13.935000	134.780823
-6.341423	13.935000	162.272705
-5.341423	13.935000	172.518448
-4.341423	13.935000	180.396500
-3.341423	13.935000	180.233109
-2.341423	13.935000	117.624557
-1.341423	13.935000	129.455536
-0.341423	13.935000	151.147964
0.658577	13.935000	155.115189
1.658577	13.935000	157.483429
2.658577	13.935000	163.251816
3.658577	13.935000	176.302780
4.658577	13.935000	110.898743
5.658577	13.935000	103.843086
6.658577	13.935000	151.052750
7.658577	13.935000	157.577209
8.658577	13.935000	145.929352
9.658577	13.935000	142.219635
10.658577	13.935000	144.684311
11.658577	13.935000	134.792862
12.658577	13.935000	152.147720
13.658577	13.935000	179.960480
14.658577	13.935000	2128.692139
15.658577	13.935000	0.639823
16.658577	13.935000	1763.027344
17.658577	13.935000	1545.912720
18.658577	13.935000	0.639823
19.658577	13.935000	2595.124023
20.658577	13.935000	268.215057
21.658577	13.935000	2563.605713
22.658577	13.935000	244.577408
23.658577	13.935000	1014.011169
24.658577	13.935000	1392.741455
-39.341423	14.935000	127.096069
-38.341423	14.935000	142.995590
-37.341423	14.935000	176.857056
-36.341423	14.935000	176.177536
-35.341423	14.935000	144.555588
-34.341423	14.935000	157.719116
-33.341423	14.935000	177.394409
-32.341423	14.935000	167.762924
-31.341423	14.935000	163.022873
-30.341423	14.935000	160.604919
-29.341423	14.935000	162.449402
-28.341423	14.935000	150.205093
-27.341423	14.935000	135.428635
-26.341423	14.935000	137.223358
-25.341423	14.935000	142.492004
-24.341423	14.935000	169.720749
-23.341423	14.935000	162.508270
-22.341423	14.935000	172.169357
-21.341423	14.935000	166.711594
-20.341423	14.935000	138.370926
-19.341423	14.935000	138.935364
-18.341423	14.935000	153.434845
-17.341423	14.935000	142.822968
-16.341423	14.935000	168.435608
-15.341423	14.935000	187.898514
-14.341423	14.935000	163.702423
-13.341423	14.935000	162.511673
-12.341423	14.935000	158.692963
-11.341423	14.935000	178.892914
-10.341423	14.935000	143.390381
-9.341423	14.935000	184.035080
-8.341423	14.935000	176.614960
-7.341423	14.935000	162.220261
-6.341423	14.935000	132.920929
-5.341423	14.935000	119.514648
-4.341423	14.935000	157.451324
-3.341423	14.935000	180.383728
-2.341423	14.935000	129.823044
-1.341423	14.935000	156.965683
-0.341423	14.935000	148.939316
0.658577	14.935000	125.777802
1.658577	14.935000	138.754517
2.658577	14.935000	148.864304
3.658577	14.935000	189.844955
4.658577	14.935000	688.105835
5.658577	14.935000	199.390762
6.658577	14.935000	204.179108
7.658577	14.935000	148.215805
8.658577	14.935000	149.015015
9.658577	14.935000	159.716797
10.658577	14.935000	133.184525
11.658577	14.935000	119.960320
12.658577	14.935000	180.767090
13.658577	14.935000	76.777893
14.658577	14.935000	183.829163
15.658577	14.935000	0.639823
16.658577	14.935000	34.724976
17.658577	14.935000	2595.124023
18.658577	14.935000	6.909832
19.658577	14.935000	99.889130
20.658577	14.935000	2595.124023
21.658577	14.935000	2366.325439
22.658577	14.935000	313.255127
23.658577	14.935000	2094.098633
24.658577	14.935000	357.785828
-39.341423	15.935000	176.621292
-38.341423	15.935000	172.581497
-37.341423	15.935000	174.359955
-36.341423	15.935000	172.898834
-35.341423	15.935000	174.638016
-34.341423	15.935000	165.091583
-33.341423	15.935000	168.035324
-32.341423	15.935000	176.435303
-31.341423	15.935000	160.749329
-30.341423	15.935000	130.440048
-29.341423	15.935000	167.275726
-28.341423	15.935000	141.863831
-27.341423	15.935000	166.995163
-26.341423	15.935000	145.706223
-25.341423	15.935000	134.384598
-24.341423	15.935000	143.866272
-23.341423	15.935000	116.005791
-22.341423	15.935000	74.817688
-21.341423	15.935000	172.810059
-20.341423	15.935000	124.890831
-19.341423	15.935000	127.506111
-18.341423	15.935000	153.545593
-17.341423	15.935000	135.759415
-16.341423	15.935000	148.695724
-15.341423	15.935000	132.498459
-14.341423	15.935000	135.651520
-13.341423	15.935000	177.917786
-12.341423	15.935000	144.300507
-11.341423	15.935000	177.359283
-10.341423	15.935000	160.468231
-9.341423	15.935000	5.796275
-8.341423	15.935000	188.378845
-7.341423	15.935000	170.576813
-6.341423	15.935000	156.529953
-5.341423	15.935000	84.047981
-4.341423	15.935000	78.056831
-3.341423	15.935000	98.544022
-2.341423	15.935000	187.214478
-1.341423	15.935000	168.497574
-0.341423	15.935000	121.432205
0.658577	15.935000	112.259506
1.658577	15.935000	155.518784
2.658577	15.935000	157.617294
3.658577	15.935000	157.823395
4.658577	15.935000	204.205841
5.658577	15.935000	2322.502441
6.658577	15.935000	262.453522
7.658577	15.935000	597.887634
8.658577	15.935000	121.237839
9.658577	15.935000	156.234222
10.658577	15.935000	143.991791
11.658577	15.935000	140.301636
12.658577	15.935000	184.082611
13.658577	15.935000	191.713409
14.658577	15.935000	2595.124023
15.658577	15.935000	1.601338
16.658577	15.935000	0.639823
17.658577	15.935000	2.071796
18.658577	15.935000	2595.124023
19.658577	15.935000	2595.124023
20.658577	15.935000	889.822327
21.658577	15.935000	2105.582520
22.658577	15.935000	1773.284790
23.658577	15.935000	0.639823
24.658577	15.935000	2126.425537
