#XList		#YList		#IList		
-39.341423	-21.065000	99.454636
-38.341423	-21.065000	79.700417
-37.341423	-21.065000	71.893326
-36.341423	-21.065000	74.153801
-35.341423	-21.065000	85.818481
-34.341423	-21.065000	194.785187
-33.341423	-21.065000	268.371185
-32.341423	-21.065000	254.123108
-31.341423	-21.065000	298.607635
-30.341423	-21.065000	263.940491
-29.341423	-21.065000	204.412292
-28.341423	-21.065000	157.608429
-27.341423	-21.065000	178.742279
-26.341423	-21.065000	136.367233
-25.341423	-21.065000	61.940586
-24.341423	-21.065000	6.131997
-23.341423	-21.065000	11.618554
-22.341423	-21.065000	6.553643
-21.341423	-21.065000	71.253265
-20.341423	-21.065000	10.319743
-19.341423	-21.065000	4.188691
-18.341423	-21.065000	7.106419
-17.341423	-21.065000	53.034256
-16.341423	-21.065000	323.667419
-15.341423	-21.065000	337.502167
-14.341423	-21.065000	262.787903
-13.341423	-21.065000	249.061310
-12.341423	-21.065000	273.613953
-11.341423	-21.065000	39.911926
-10.341423	-21.065000	3.086832
-9.341423	-21.065000	12.535435
-8.341423	-21.065000	72.570160
-7.341423	-21.065000	193.844528
-6.341423	-21.065000	225.004990
-5.341423	-21.065000	163.441391
-4.341423	-21.065000	31.524406
-3.341423	-21.065000	17.869246
-2.341423	-21.065000	159.816589
-1.341423	-21.065000	178.665497
-0.341423	-21.065000	200.947144
0.658577	-21.065000	185.040604
1.658577	-21.065000	134.118225
2.658577	-21.065000	121.870628
3.658577	-21.065000	115.948952
4.658577	-21.065000	124.626747
5.658577	-21.065000	151.922302
6.658577	-21.065000	11.632323
7.658577	-21.065000	0.000000
8.658577	-21.065000	6.045783
9.658577	-21.065000	85.370117
10.658577	-21.065000	97.737976
11.658577	-21.065000	130.888885
12.658577	-21.065000	139.923157
13.658577	-21.065000	135.745529
14.658577	-21.065000	159.917664
15.658577	-21.065000	125.899994
16.658577	-21.065000	112.569405
17.658577	-21.065000	131.588654
18.658577	-21.065000	205.957275
19.658577	-21.065000	195.702072
20.658577	-21.065000	90.752274
21.658577	-21.065000	11.731967
22.658577	-21.065000	7.381675
23.658577	-21.065000	1.181255
24.658577	-21.065000	0.000000
-39.341423	-20.065000	142.859039
-38.341423	-20.065000	107.036171
-37.341423	-20.065000	70.908951
-36.341423	-20.065000	80.040314
-35.341423	-20.065000	90.583038
-34.341423	-20.065000	127.399879
-33.341423	-20.065000	208.872681
-32.341423	-20.065000	237.432510
-31.341423	-20.065000	293.365997
-30.341423	-20.065000	233.649063
-29.341423	-20.065000	187.673065
-28.341423	-20.065000	170.325745
-27.341423	-20.065000	189.098862
-26.341423	-20.065000	194.099243
-25.341423	-20.065000	183.224655
-24.341423	-20.065000	138.036911
-23.341423	-20.065000	54.358521
-22.341423	-20.065000	18.321276
-21.341423	-20.065000	188.785889
-20.341423	-20.065000	108.525230
-19.341423	-20.065000	117.626076
-18.341423	-20.065000	96.582268
-17.341423	-20.065000	240.351334
-16.341423	-20.065000	345.081573
-15.341423	-20.065000	336.061646
-14.341423	-20.065000	286.381439
-13.341423	-20.065000	285.418732
-12.341423	-20.065000	270.205017
-11.341423	-20.065000	19.435261
-10.341423	-20.065000	24.960377
-9.341423	-20.065000	158.473846
-8.341423	-20.065000	191.181763
-7.341423	-20.065000	206.013046
-6.341423	-20.065000	217.862518
-5.341423	-20.065000	213.691528
-4.341423	-20.065000	40.963600
-3.341423	-20.065000	39.763195
-2.341423	-20.065000	192.225494
-1.341423	-20.065000	179.341187
-0.341423	-20.065000	188.436340
0.658577	-20.065000	170.742294
1.658577	-20.065000	156.156036
2.658577	-20.065000	166.754929
3.658577	-20.065000	124.105667
4.658577	-20.065000	134.351242
5.658577	-20.065000	82.711975
6.658577	-20.065000	3.899804
7.658577	-20.065000	0.000000
8.658577	-20.065000	6.787997
9.658577	-20.065000	106.531754
10.658577	-20.065000	174.082718
11.658577	-20.065000	185.553101
12.658577	-20.065000	163.023560
13.658577	-20.065000	170.892624
14.658577	-20.065000	173.327118
15.658577	-20.065000	168.249756
16.658577	-20.065000	149.957947
17.658577	-20.065000	97.510017
18.658577	-20.065000	206.992828
19.658577	-20.065000	197.479492
20.658577	-20.065000	190.435608
21.658577	-20.065000	91.609459
22.658577	-20.065000	3.802361
23.658577	-20.065000	1.347258
24.658577	-20.065000	0.000000
-39.341423	-19.065000	129.044312
-38.341423	-19.065000	74.600876
-37.341423	-19.065000	74.666733
-36.341423	-19.065000	71.389374
-35.341423	-19.065000	108.311592
-34.341423	-19.065000	17.851313
-33.341423	-19.065000	140.407364
-32.341423	-19.065000	268.131042
-31.341423	-19.065000	306.612396
-30.341423	-19.065000	302.210022
-29.341423	-19.065000	199.229889
-28.341423	-19.065000	182.998611
-27.341423	-19.065000	179.491837
-26.341423	-19.065000	186.611877
-25.341423	-19.065000	184.420746
-24.341423	-19.065000	182.808594
-23.341423	-19.065000	188.143280
-22.341423	-19.065000	182.677170
-21.341423	-19.065000	213.953629
-20.341423	-19.065000	217.057190
-19.341423	-19.065000	220.851517
-18.341423	-19.065000	136.695313
-17.341423	-19.065000	287.860260
-16.341423	-19.065000	353.456116
-15.341423	-19.065000	346.408112
-14.341423	-19.065000	253.948975
-13.341423	-19.065000	278.021667
-12.341423	-19.065000	304.900269
-11.341423	-19.065000	91.688942
-10.341423	-19.065000	237.118744
-9.341423	-19.065000	220.352844
-8.341423	-19.065000	215.097397
-7.341423	-19.065000	213.822922
-6.341423	-19.065000	212.574738
-5.341423	-19.065000	171.292648
-4.341423	-19.065000	178.810440
-3.341423	-19.065000	215.757080
-2.341423	-19.065000	113.735733
-1.341423	-19.065000	160.040451
-0.341423	-19.065000	213.266418
0.658577	-19.065000	110.714813
1.658577	-19.065000	105.356697
2.658577	-19.065000	149.730301
3.658577	-19.065000	209.860687
4.658577	-19.065000	147.053940
5.658577	-19.065000	14.255118
6.658577	-19.065000	5.143229
7.658577	-19.065000	22.164869
8.658577	-19.065000	73.275589
9.658577	-19.065000	179.274033
10.658577	-19.065000	175.621399
11.658577	-19.065000	210.498978
12.658577	-19.065000	106.342918
13.658577	-19.065000	176.078018
14.658577	-19.065000	114.169716
15.658577	-19.065000	44.412670
16.658577	-19.065000	145.376465
17.658577	-19.065000	44.547771
18.658577	-19.065000	217.894516
19.658577	-19.065000	217.175079
20.658577	-19.065000	170.049469
21.658577	-19.065000	77.916870
22.658577	-19.065000	7.195356
23.658577	-19.065000	3.168749
24.658577	-19.065000	2.858086
-39.341423	-18.065000	180.215225
-38.341423	-18.065000	103.488258
-37.341423	-18.065000	151.587143
-36.341423	-18.065000	130.669006
-35.341423	-18.065000	97.389725
-34.341423	-18.065000	5.481575
-33.341423	-18.065000	75.974281
-32.341423	-18.065000	222.451141
-31.341423	-18.065000	289.567871
-30.341423	-18.065000	271.282928
-29.341423	-18.065000	187.924850
-28.341423	-18.065000	187.825623
-27.341423	-18.065000	186.435822
-26.341423	-18.065000	206.653412
-25.341423	-18.065000	197.946457
-24.341423	-18.065000	202.273880
-23.341423	-18.065000	192.559067
-22.341423	-18.065000	201.473633
-21.341423	-18.065000	222.013184
-20.341423	-18.065000	223.052902
-19.341423	-18.065000	163.282471
-18.341423	-18.065000	107.342590
-17.341423	-18.065000	207.152039
-16.341423	-18.065000	285.641113
-15.341423	-18.065000	334.123077
-14.341423	-18.065000	315.149719
-13.341423	-18.065000	330.023376
-12.341423	-18.065000	286.077118
-11.341423	-18.065000	231.422134
-10.341423	-18.065000	240.655914
-9.341423	-18.065000	232.353912
-8.341423	-18.065000	199.073975
-7.341423	-18.065000	210.340347
-6.341423	-18.065000	205.459122
-5.341423	-18.065000	59.222897
-4.341423	-18.065000	122.469353
-3.341423	-18.065000	193.587479
-2.341423	-18.065000	192.768372
-1.341423	-18.065000	135.645874
-0.341423	-18.065000	137.280960
0.658577	-18.065000	97.764435
1.658577	-18.065000	104.979813
2.658577	-18.065000	181.510315
3.658577	-18.065000	152.126511
4.658577	-18.065000	182.308731
5.658577	-18.065000	45.015141
6.658577	-18.065000	85.648781
7.658577	-18.065000	245.271561
8.658577	-18.065000	235.136215
9.658577	-18.065000	213.282104
10.658577	-18.065000	176.197815
11.658577	-18.065000	256.982330
12.658577	-18.065000	224.528061
13.658577	-18.065000	181.098251
14.658577	-18.065000	204.875854
15.658577	-18.065000	174.237473
16.658577	-18.065000	156.357254
17.658577	-18.065000	177.647049
18.658577	-18.065000	201.390640
19.658577	-18.065000	85.667465
20.658577	-18.065000	10.746675
21.658577	-18.065000	52.627663
22.658577	-18.065000	182.962067
23.658577	-18.065000	179.523895
24.658577	-18.065000	85.905258
-39.341423	-17.065000	200.753494
-38.341423	-17.065000	221.205994
-37.341423	-17.065000	283.295197
-36.341423	-17.065000	21.812904
-35.341423	-17.065000	7.763711
-34.341423	-17.065000	4.359499
-33.341423	-17.065000	9.151008
-32.341423	-17.065000	104.481735
-31.341423	-17.065000	159.885086
-30.341423	-17.065000	187.257462
-29.341423	-17.065000	182.289581
-28.341423	-17.065000	187.323593
-27.341423	-17.065000	177.574707
-26.341423	-17.065000	180.709412
-25.341423	-17.065000	199.578018
-24.341423	-17.065000	209.800201
-23.341423	-17.065000	214.922318
-22.341423	-17.065000	170.430588
-21.341423	-17.065000	178.765182
-20.341423	-17.065000	43.909443
-19.341423	-17.065000	69.465652
-18.341423	-17.065000	9.343848
-17.341423	-17.065000	127.131874
-16.341423	-17.065000	306.412445
-15.341423	-17.065000	342.284210
-14.341423	-17.065000	350.135040
-13.341423	-17.065000	324.063934
-12.341423	-17.065000	277.215088
-11.341423	-17.065000	198.234055
-10.341423	-17.065000	251.455643
-9.341423	-17.065000	202.511398
-8.341423	-17.065000	167.360809
-7.341423	-17.065000	34.438011
-6.341423	-17.065000	219.171860
-5.341423	-17.065000	189.508331
-4.341423	-17.065000	97.328461
-3.341423	-17.065000	163.273193
-2.341423	-17.065000	122.179031
-1.341423	-17.065000	181.790726
-0.341423	-17.065000	108.395638
0.658577	-17.065000	116.474709
1.658577	-17.065000	86.929924
2.658577	-17.065000	91.623573
3.658577	-17.065000	101.816345
4.658577	-17.065000	158.702133
5.658577	-17.065000	27.608507
6.658577	-17.065000	145.066849
7.658577	-17.065000	232.928055
8.658577	-17.065000	187.870117
9.658577	-17.065000	211.003815
10.658577	-17.065000	211.203186
11.658577	-17.065000	205.601135
12.658577	-17.065000	217.810425
13.658577	-17.065000	141.494949
14.658577	-17.065000	162.390472
15.658577	-17.065000	230.119370
16.658577	-17.065000	66.444572
17.658577	-17.065000	175.955322
18.658577	-17.065000	176.338058
19.658577	-17.065000	165.907730
20.658577	-17.065000	15.926817
21.658577	-17.065000	69.961136
22.658577	-17.065000	85.151962
23.658577	-17.065000	224.855255
24.658577	-17.065000	157.709061
-39.341423	-16.065000	129.051483
-38.341423	-16.065000	163.662186
-37.341423	-16.065000	60.349590
-36.341423	-16.065000	23.645096
-35.341423	-16.065000	55.021366
-34.341423	-16.065000	60.937958
-33.341423	-16.065000	131.873352
-32.341423	-16.065000	267.138763
-31.341423	-16.065000	194.779938
-30.341423	-16.065000	168.570969
-29.341423	-16.065000	186.009979
-28.341423	-16.065000	183.368484
-27.341423	-16.065000	182.241562
-26.341423	-16.065000	191.158112
-25.341423	-16.065000	196.348587
-24.341423	-16.065000	203.404861
-23.341423	-16.065000	185.299286
-22.341423	-16.065000	177.263535
-21.341423	-16.065000	170.181931
-20.341423	-16.065000	16.351685
-19.341423	-16.065000	3.078843
-18.341423	-16.065000	8.254483
-17.341423	-16.065000	59.310760
-16.341423	-16.065000	242.569992
-15.341423	-16.065000	284.430054
-14.341423	-16.065000	365.957123
-13.341423	-16.065000	295.040558
-12.341423	-16.065000	275.848877
-11.341423	-16.065000	196.311401
-10.341423	-16.065000	150.610458
-9.341423	-16.065000	173.687943
-8.341423	-16.065000	78.837723
-7.341423	-16.065000	122.887787
-6.341423	-16.065000	212.672089
-5.341423	-16.065000	217.242554
-4.341423	-16.065000	185.454102
-3.341423	-16.065000	88.494003
-2.341423	-16.065000	77.110558
-1.341423	-16.065000	115.546654
-0.341423	-16.065000	202.007828
0.658577	-16.065000	154.656494
1.658577	-16.065000	77.194107
2.658577	-16.065000	55.907703
3.658577	-16.065000	94.587517
4.658577	-16.065000	130.444733
5.658577	-16.065000	168.780472
6.658577	-16.065000	200.831436
7.658577	-16.065000	170.991394
8.658577	-16.065000	162.707520
9.658577	-16.065000	201.905289
10.658577	-16.065000	224.354080
11.658577	-16.065000	281.271271
12.658577	-16.065000	235.731094
13.658577	-16.065000	27.197639
14.658577	-16.065000	58.590935
15.658577	-16.065000	146.466293
16.658577	-16.065000	98.157639
17.658577	-16.065000	194.499130
18.658577	-16.065000	207.096725
19.658577	-16.065000	133.805130
20.658577	-16.065000	45.715733
21.658577	-16.065000	173.883972
22.658577	-16.065000	94.188759
23.658577	-16.065000	199.462631
24.658577	-16.065000	97.398621
-39.341423	-15.065000	72.395988
-38.341423	-15.065000	11.121300
-37.341423	-15.065000	37.652313
-36.341423	-15.065000	209.934097
-35.341423	-15.065000	277.341187
-34.341423	-15.065000	329.236938
-33.341423	-15.065000	284.702789
-32.341423	-15.065000	283.871307
-31.341423	-15.065000	206.756042
-30.341423	-15.065000	166.599045
-29.341423	-15.065000	190.296509
-28.341423	-15.065000	178.825272
-27.341423	-15.065000	191.748642
-26.341423	-15.065000	180.259521
-25.341423	-15.065000	199.700134
-24.341423	-15.065000	198.689011
-23.341423	-15.065000	182.115967
-22.341423	-15.065000	148.279877
-21.341423	-15.065000	123.471222
-20.341423	-15.065000	14.599620
-19.341423	-15.065000	3.387457
-18.341423	-15.065000	157.072998
-17.341423	-15.065000	182.969421
-16.341423	-15.065000	275.030640
-15.341423	-15.065000	296.899689
-14.341423	-15.065000	274.992859
-13.341423	-15.065000	295.049316
-12.341423	-15.065000	195.759705
-11.341423	-15.065000	81.291634
-10.341423	-15.065000	155.934952
-9.341423	-15.065000	160.967484
-8.341423	-15.065000	151.665314
-7.341423	-15.065000	144.923676
-6.341423	-15.065000	140.326965
-5.341423	-15.065000	162.453583
-4.341423	-15.065000	108.128662
-3.341423	-15.065000	81.134605
-2.341423	-15.065000	71.706711
-1.341423	-15.065000	77.829895
-0.341423	-15.065000	244.033569
0.658577	-15.065000	213.505493
1.658577	-15.065000	92.492798
2.658577	-15.065000	88.814568
3.658577	-15.065000	117.854240
4.658577	-15.065000	172.496857
5.658577	-15.065000	198.791794
6.658577	-15.065000	242.083344
7.658577	-15.065000	174.329422
8.658577	-15.065000	206.668854
9.658577	-15.065000	211.319946
10.658577	-15.065000	217.162689
11.658577	-15.065000	204.249146
12.658577	-15.065000	21.392124
13.658577	-15.065000	15.933685
14.658577	-15.065000	76.150581
15.658577	-15.065000	9.336458
16.658577	-15.065000	64.616493
17.658577	-15.065000	152.715179
18.658577	-15.065000	199.086029
19.658577	-15.065000	32.349552
20.658577	-15.065000	35.727554
21.658577	-15.065000	158.279190
22.658577	-15.065000	199.957520
23.658577	-15.065000	119.715294
24.658577	-15.065000	56.593048
-39.341423	-14.065000	20.584532
-38.341423	-14.065000	58.898075
-37.341423	-14.065000	238.720901
-36.341423	-14.065000	328.565186
-35.341423	-14.065000	303.529785
-34.341423	-14.065000	267.210144
-33.341423	-14.065000	239.198792
-32.341423	-14.065000	278.198669
-31.341423	-14.065000	266.543457
-30.341423	-14.065000	200.494461
-29.341423	-14.065000	170.373611
-28.341423	-14.065000	181.947235
-27.341423	-14.065000	201.465622
-26.341423	-14.065000	198.385391
-25.341423	-14.065000	181.452576
-24.341423	-14.065000	173.650497
-23.341423	-14.065000	186.837189
-22.341423	-14.065000	166.045502
-21.341423	-14.065000	42.000557
-20.341423	-14.065000	74.720886
-19.341423	-14.065000	12.196190
-18.341423	-14.065000	81.597038
-17.341423	-14.065000	65.415459
-16.341423	-14.065000	147.292557
-15.341423	-14.065000	255.217194
-14.341423	-14.065000	236.938446
-13.341423	-14.065000	85.910362
-12.341423	-14.065000	92.621048
-11.341423	-14.065000	104.861435
-10.341423	-14.065000	151.677765
-9.341423	-14.065000	109.608261
-8.341423	-14.065000	98.363037
-7.341423	-14.065000	96.543327
-6.341423	-14.065000	135.830963
-5.341423	-14.065000	138.972305
-4.341423	-14.065000	86.554939
-3.341423	-14.065000	79.257668
-2.341423	-14.065000	67.169746
-1.341423	-14.065000	84.356979
-0.341423	-14.065000	169.665451
0.658577	-14.065000	181.521637
1.658577	-14.065000	135.035400
2.658577	-14.065000	75.979057
3.658577	-14.065000	81.576088
4.658577	-14.065000	90.119308
5.658577	-14.065000	174.862839
6.658577	-14.065000	244.335220
7.658577	-14.065000	246.249451
8.658577	-14.065000	191.699127
9.658577	-14.065000	233.766113
10.658577	-14.065000	137.281738
11.658577	-14.065000	9.503137
12.658577	-14.065000	10.340910
13.658577	-14.065000	104.286880
14.658577	-14.065000	83.058266
15.658577	-14.065000	5.658256
16.658577	-14.065000	5.958145
17.658577	-14.065000	10.762760
18.658577	-14.065000	42.520245
19.658577	-14.065000	70.920502
20.658577	-14.065000	172.511093
21.658577	-14.065000	174.487305
22.658577	-14.065000	214.796326
23.658577	-14.065000	145.036850
24.658577	-14.065000	86.506470
-39.341423	-13.065000	210.059616
-38.341423	-13.065000	275.033539
-37.341423	-13.065000	322.743530
-36.341423	-13.065000	271.800293
-35.341423	-13.065000	229.545059
-34.341423	-13.065000	244.886108
-33.341423	-13.065000	272.665192
-32.341423	-13.065000	306.875732
-31.341423	-13.065000	290.393738
-30.341423	-13.065000	247.888306
-29.341423	-13.065000	223.413666
-28.341423	-13.065000	191.476059
-27.341423	-13.065000	196.242828
-26.341423	-13.065000	200.992203
-25.341423	-13.065000	189.181686
-24.341423	-13.065000	176.332718
-23.341423	-13.065000	188.098740
-22.341423	-13.065000	193.582397
-21.341423	-13.065000	110.861015
-20.341423	-13.065000	149.055756
-19.341423	-13.065000	113.589088
-18.341423	-13.065000	73.954597
-17.341423	-13.065000	59.970612
-16.341423	-13.065000	94.198715
-15.341423	-13.065000	91.302940
-14.341423	-13.065000	18.042532
-13.341423	-13.065000	6.969646
-12.341423	-13.065000	50.471237
-11.341423	-13.065000	135.440201
-10.341423	-13.065000	140.483749
-9.341423	-13.065000	106.336273
-8.341423	-13.065000	102.600922
-7.341423	-13.065000	109.270409
-6.341423	-13.065000	130.707611
-5.341423	-13.065000	132.035416
-4.341423	-13.065000	124.427155
-3.341423	-13.065000	104.947914
-2.341423	-13.065000	106.011909
-1.341423	-13.065000	114.968391
-0.341423	-13.065000	200.222763
0.658577	-13.065000	158.115845
1.658577	-13.065000	125.114220
2.658577	-13.065000	98.752571
3.658577	-13.065000	106.391479
4.658577	-13.065000	116.377785
5.658577	-13.065000	117.792465
6.658577	-13.065000	130.419418
7.658577	-13.065000	237.569687
8.658577	-13.065000	219.165741
9.658577	-13.065000	147.977295
10.658577	-13.065000	9.417590
11.658577	-13.065000	3.764478
12.658577	-13.065000	25.665600
13.658577	-13.065000	116.395477
14.658577	-13.065000	122.979614
15.658577	-13.065000	17.525789
16.658577	-13.065000	48.068279
17.658577	-13.065000	108.933220
18.658577	-13.065000	180.005524
19.658577	-13.065000	192.540756
20.658577	-13.065000	241.033127
21.658577	-13.065000	226.035294
22.658577	-13.065000	207.844513
23.658577	-13.065000	212.910767
24.658577	-13.065000	199.762146
-39.341423	-12.065000	265.095764
-38.341423	-12.065000	270.897400
-37.341423	-12.065000	309.772095
-36.341423	-12.065000	273.115692
-35.341423	-12.065000	241.600510
-34.341423	-12.065000	275.794525
-33.341423	-12.065000	278.276154
-32.341423	-12.065000	299.396057
-31.341423	-12.065000	250.569870
-30.341423	-12.065000	275.082214
-29.341423	-12.065000	286.054291
-28.341423	-12.065000	228.899567
-27.341423	-12.065000	150.636078
-26.341423	-12.065000	202.010376
-25.341423	-12.065000	187.276932
-24.341423	-12.065000	185.075150
-23.341423	-12.065000	199.002609
-22.341423	-12.065000	185.959396
-21.341423	-12.065000	112.734825
-20.341423	-12.065000	138.488358
-19.341423	-12.065000	128.306046
-18.341423	-12.065000	86.400475
-17.341423	-12.065000	56.174065
-16.341423	-12.065000	56.071949
-15.341423	-12.065000	84.479210
-14.341423	-12.065000	16.274677
-13.341423	-12.065000	23.536297
-12.341423	-12.065000	171.645111
-11.341423	-12.065000	144.192535
-10.341423	-12.065000	147.226532
-9.341423	-12.065000	96.795998
-8.341423	-12.065000	94.971375
-7.341423	-12.065000	135.304794
-6.341423	-12.065000	159.426880
-5.341423	-12.065000	170.719818
-4.341423	-12.065000	81.570068
-3.341423	-12.065000	135.430740
-2.341423	-12.065000	154.004745
-1.341423	-12.065000	135.750488
-0.341423	-12.065000	148.279129
0.658577	-12.065000	91.694160
1.658577	-12.065000	79.603577
2.658577	-12.065000	109.562599
3.658577	-12.065000	102.781097
4.658577	-12.065000	118.138939
5.658577	-12.065000	141.471512
6.658577	-12.065000	178.098816
7.658577	-12.065000	143.556091
8.658577	-12.065000	145.867325
9.658577	-12.065000	9.957928
10.658577	-12.065000	4.541207
11.658577	-12.065000	5.363018
12.658577	-12.065000	130.327133
13.658577	-12.065000	123.988358
14.658577	-12.065000	124.248207
15.658577	-12.065000	158.317474
16.658577	-12.065000	82.048279
17.658577	-12.065000	201.843399
18.658577	-12.065000	206.919373
19.658577	-12.065000	208.517151
20.658577	-12.065000	187.063721
21.658577	-12.065000	212.858475
22.658577	-12.065000	205.892883
23.658577	-12.065000	201.318130
24.658577	-12.065000	177.701126
-39.341423	-11.065000	281.129028
-38.341423	-11.065000	259.547272
-37.341423	-11.065000	306.977753
-36.341423	-11.065000	271.156464
-35.341423	-11.065000	266.206512
-34.341423	-11.065000	261.701385
-33.341423	-11.065000	268.594971
-32.341423	-11.065000	257.517151
-31.341423	-11.065000	264.718292
-30.341423	-11.065000	249.342087
-29.341423	-11.065000	304.619995
-28.341423	-11.065000	264.519470
-27.341423	-11.065000	227.050385
-26.341423	-11.065000	310.333466
-25.341423	-11.065000	195.706055
-24.341423	-11.065000	187.359192
-23.341423	-11.065000	183.915222
-22.341423	-11.065000	151.452026
-21.341423	-11.065000	64.189430
-20.341423	-11.065000	193.556808
-19.341423	-11.065000	151.014084
-18.341423	-11.065000	130.269638
-17.341423	-11.065000	94.927963
-16.341423	-11.065000	82.218254
-15.341423	-11.065000	134.641830
-14.341423	-11.065000	53.093517
-13.341423	-11.065000	34.597641
-12.341423	-11.065000	193.626907
-11.341423	-11.065000	161.036133
-10.341423	-11.065000	140.204727
-9.341423	-11.065000	64.906296
-8.341423	-11.065000	65.501228
-7.341423	-11.065000	116.588806
-6.341423	-11.065000	137.522491
-5.341423	-11.065000	81.663368
-4.341423	-11.065000	83.774689
-3.341423	-11.065000	95.124542
-2.341423	-11.065000	83.845734
-1.341423	-11.065000	122.655136
-0.341423	-11.065000	84.505966
0.658577	-11.065000	90.121117
1.658577	-11.065000	147.617126
2.658577	-11.065000	169.635040
3.658577	-11.065000	88.672707
4.658577	-11.065000	75.686523
5.658577	-11.065000	103.133553
6.658577	-11.065000	181.982498
7.658577	-11.065000	228.259933
8.658577	-11.065000	192.009811
9.658577	-11.065000	6.137975
10.658577	-11.065000	2.754902
11.658577	-11.065000	3.638175
12.658577	-11.065000	13.909428
13.658577	-11.065000	149.560699
14.658577	-11.065000	150.193665
15.658577	-11.065000	148.181915
16.658577	-11.065000	93.307846
17.658577	-11.065000	203.235901
18.658577	-11.065000	184.432526
19.658577	-11.065000	171.047714
20.658577	-11.065000	129.930130
21.658577	-11.065000	172.056107
22.658577	-11.065000	184.428299
23.658577	-11.065000	185.190720
24.658577	-11.065000	154.610641
-39.341423	-10.065000	245.658356
-38.341423	-10.065000	293.812836
-37.341423	-10.065000	243.247513
-36.341423	-10.065000	268.399109
-35.341423	-10.065000	239.072739
-34.341423	-10.065000	269.849243
-33.341423	-10.065000	278.027039
-32.341423	-10.065000	277.943695
-31.341423	-10.065000	311.466644
-30.341423	-10.065000	244.625046
-29.341423	-10.065000	260.094727
-28.341423	-10.065000	251.223740
-27.341423	-10.065000	280.646698
-26.341423	-10.065000	313.286407
-25.341423	-10.065000	184.620926
-24.341423	-10.065000	171.683685
-23.341423	-10.065000	161.640152
-22.341423	-10.065000	15.510424
-21.341423	-10.065000	123.270515
-20.341423	-10.065000	97.500046
-19.341423	-10.065000	60.810291
-18.341423	-10.065000	177.188629
-17.341423	-10.065000	191.205612
-16.341423	-10.065000	153.487396
-15.341423	-10.065000	170.319595
-14.341423	-10.065000	158.955109
-13.341423	-10.065000	67.695389
-12.341423	-10.065000	210.653580
-11.341423	-10.065000	143.102875
-10.341423	-10.065000	92.049835
-9.341423	-10.065000	12.059916
-8.341423	-10.065000	80.124664
-7.341423	-10.065000	61.895821
-6.341423	-10.065000	68.420296
-5.341423	-10.065000	75.622337
-4.341423	-10.065000	59.135197
-3.341423	-10.065000	51.451496
-2.341423	-10.065000	77.412750
-1.341423	-10.065000	91.017387
-0.341423	-10.065000	126.740967
0.658577	-10.065000	171.549713
1.658577	-10.065000	177.239807
2.658577	-10.065000	128.345673
3.658577	-10.065000	90.335205
4.658577	-10.065000	77.029121
5.658577	-10.065000	116.538795
6.658577	-10.065000	145.208221
7.658577	-10.065000	149.354416
8.658577	-10.065000	13.961899
9.658577	-10.065000	2.932881
10.658577	-10.065000	1.658671
11.658577	-10.065000	2.411495
12.658577	-10.065000	25.487545
13.658577	-10.065000	188.009979
14.658577	-10.065000	184.323074
15.658577	-10.065000	164.225861
16.658577	-10.065000	186.956116
17.658577	-10.065000	190.675095
18.658577	-10.065000	185.134109
19.658577	-10.065000	178.964676
20.658577	-10.065000	189.261368
21.658577	-10.065000	184.398499
22.658577	-10.065000	189.533752
23.658577	-10.065000	185.415604
24.658577	-10.065000	75.160065
-39.341423	-9.065000	235.411804
-38.341423	-9.065000	253.707657
-37.341423	-9.065000	254.981277
-36.341423	-9.065000	288.528992
-35.341423	-9.065000	315.888763
-34.341423	-9.065000	262.364746
-33.341423	-9.065000	260.875397
-32.341423	-9.065000	326.821075
-31.341423	-9.065000	303.926300
-30.341423	-9.065000	288.670715
-29.341423	-9.065000	296.399109
-28.341423	-9.065000	280.128357
-27.341423	-9.065000	318.834869
-26.341423	-9.065000	258.901581
-25.341423	-9.065000	129.650925
-24.341423	-9.065000	16.328117
-23.341423	-9.065000	9.863958
-22.341423	-9.065000	3.214731
-21.341423	-9.065000	9.464372
-20.341423	-9.065000	20.046923
-19.341423	-9.065000	123.373772
-18.341423	-9.065000	97.443001
-17.341423	-9.065000	106.310577
-16.341423	-9.065000	191.930008
-15.341423	-9.065000	259.479858
-14.341423	-9.065000	220.371017
-13.341423	-9.065000	148.209503
-12.341423	-9.065000	256.593872
-11.341423	-9.065000	308.430847
-10.341423	-9.065000	230.299942
-9.341423	-9.065000	82.945610
-8.341423	-9.065000	186.361221
-7.341423	-9.065000	102.372795
-6.341423	-9.065000	65.982819
-5.341423	-9.065000	45.921295
-4.341423	-9.065000	61.655128
-3.341423	-9.065000	64.807808
-2.341423	-9.065000	63.467613
-1.341423	-9.065000	99.840652
-0.341423	-9.065000	143.612183
0.658577	-9.065000	126.193161
1.658577	-9.065000	41.080334
2.658577	-9.065000	99.620026
3.658577	-9.065000	86.359344
4.658577	-9.065000	144.284668
5.658577	-9.065000	144.070313
6.658577	-9.065000	164.837082
7.658577	-9.065000	133.592804
8.658577	-9.065000	5.332705
9.658577	-9.065000	1.964196
10.658577	-9.065000	3.272761
11.658577	-9.065000	2.255188
12.658577	-9.065000	90.728867
13.658577	-9.065000	150.166016
14.658577	-9.065000	144.600342
15.658577	-9.065000	38.154781
16.658577	-9.065000	193.016174
17.658577	-9.065000	196.428421
18.658577	-9.065000	191.765305
19.658577	-9.065000	182.312454
20.658577	-9.065000	183.876160
21.658577	-9.065000	187.605789
22.658577	-9.065000	186.055695
23.658577	-9.065000	193.129761
24.658577	-9.065000	31.873140
-39.341423	-8.065000	269.336792
-38.341423	-8.065000	240.678970
-37.341423	-8.065000	263.411743
-36.341423	-8.065000	259.124207
-35.341423	-8.065000	265.536774
-34.341423	-8.065000	327.608795
-33.341423	-8.065000	282.009949
-32.341423	-8.065000	290.543793
-31.341423	-8.065000	278.708984
-30.341423	-8.065000	277.338562
-29.341423	-8.065000	268.294312
-28.341423	-8.065000	294.273926
-27.341423	-8.065000	242.849426
-26.341423	-8.065000	185.547211
-25.341423	-8.065000	245.988266
-24.341423	-8.065000	130.530289
-23.341423	-8.065000	10.789394
-22.341423	-8.065000	16.334656
-21.341423	-8.065000	127.805122
-20.341423	-8.065000	148.504654
-19.341423	-8.065000	124.112602
-18.341423	-8.065000	126.139511
-17.341423	-8.065000	268.012054
-16.341423	-8.065000	240.538696
-15.341423	-8.065000	165.373459
-14.341423	-8.065000	152.794998
-13.341423	-8.065000	182.037598
-12.341423	-8.065000	185.770111
-11.341423	-8.065000	223.247940
-10.341423	-8.065000	160.963699
-9.341423	-8.065000	251.153122
-8.341423	-8.065000	141.834473
-7.341423	-8.065000	68.237274
-6.341423	-8.065000	92.797470
-5.341423	-8.065000	120.029648
-4.341423	-8.065000	60.139996
-3.341423	-8.065000	66.209938
-2.341423	-8.065000	41.625225
-1.341423	-8.065000	43.442101
-0.341423	-8.065000	50.935238
0.658577	-8.065000	81.397552
1.658577	-8.065000	19.611706
2.658577	-8.065000	29.937164
3.658577	-8.065000	82.149605
4.658577	-8.065000	199.665131
5.658577	-8.065000	187.470261
6.658577	-8.065000	159.955734
7.658577	-8.065000	118.445808
8.658577	-8.065000	3.523691
9.658577	-8.065000	5.741433
10.658577	-8.065000	2.988407
11.658577	-8.065000	3.770745
12.658577	-8.065000	25.599638
13.658577	-8.065000	184.362610
14.658577	-8.065000	153.035355
15.658577	-8.065000	92.844727
16.658577	-8.065000	212.346695
17.658577	-8.065000	218.351425
18.658577	-8.065000	197.984482
19.658577	-8.065000	191.911133
20.658577	-8.065000	157.892609
21.658577	-8.065000	181.050034
22.658577	-8.065000	183.729797
23.658577	-8.065000	176.542969
24.658577	-8.065000	12.362262
-39.341423	-7.065000	270.716461
-38.341423	-7.065000	204.135635
-37.341423	-7.065000	277.062408
-36.341423	-7.065000	297.360016
-35.341423	-7.065000	305.208374
-34.341423	-7.065000	343.099243
-33.341423	-7.065000	346.959686
-32.341423	-7.065000	305.091248
-31.341423	-7.065000	280.903564
-30.341423	-7.065000	260.736450
-29.341423	-7.065000	290.558685
-28.341423	-7.065000	275.717346
-27.341423	-7.065000	84.235756
-26.341423	-7.065000	216.087265
-25.341423	-7.065000	219.077606
-24.341423	-7.065000	168.996536
-23.341423	-7.065000	110.020416
-22.341423	-7.065000	35.590076
-21.341423	-7.065000	160.980667
-20.341423	-7.065000	157.675339
-19.341423	-7.065000	134.963867
-18.341423	-7.065000	67.989143
-17.341423	-7.065000	232.401550
-16.341423	-7.065000	246.930283
-15.341423	-7.065000	165.654602
-14.341423	-7.065000	192.545731
-13.341423	-7.065000	176.063370
-12.341423	-7.065000	175.996567
-11.341423	-7.065000	192.838013
-10.341423	-7.065000	192.624893
-9.341423	-7.065000	241.327667
-8.341423	-7.065000	252.214600
-7.341423	-7.065000	10.791393
-6.341423	-7.065000	20.278385
-5.341423	-7.065000	14.294094
-4.341423	-7.065000	13.535587
-3.341423	-7.065000	78.587227
-2.341423	-7.065000	86.531525
-1.341423	-7.065000	8.243114
-0.341423	-7.065000	4.903778
0.658577	-7.065000	2.986776
1.658577	-7.065000	5.427319
2.658577	-7.065000	106.936295
3.658577	-7.065000	154.311661
4.658577	-7.065000	162.279739
5.658577	-7.065000	198.906372
6.658577	-7.065000	59.124222
7.658577	-7.065000	19.979334
8.658577	-7.065000	6.039340
9.658577	-7.065000	1.547590
10.658577	-7.065000	49.913479
11.658577	-7.065000	12.183375
12.658577	-7.065000	15.970321
13.658577	-7.065000	128.721069
14.658577	-7.065000	239.229813
15.658577	-7.065000	221.833755
16.658577	-7.065000	201.355240
17.658577	-7.065000	207.567245
18.658577	-7.065000	194.368317
19.658577	-7.065000	202.660751
20.658577	-7.065000	208.689545
21.658577	-7.065000	184.175095
22.658577	-7.065000	186.343079
23.658577	-7.065000	191.193405
24.658577	-7.065000	58.474373
-39.341423	-6.065000	234.385406
-38.341423	-6.065000	246.079071
-37.341423	-6.065000	244.573425
-36.341423	-6.065000	282.470764
-35.341423	-6.065000	271.601074
-34.341423	-6.065000	303.211243
-33.341423	-6.065000	325.510925
-32.341423	-6.065000	324.091522
-31.341423	-6.065000	271.833527
-30.341423	-6.065000	286.768494
-29.341423	-6.065000	290.703461
-28.341423	-6.065000	258.437592
-27.341423	-6.065000	105.501945
-26.341423	-6.065000	235.559692
-25.341423	-6.065000	236.384613
-24.341423	-6.065000	234.143646
-23.341423	-6.065000	209.944809
-22.341423	-6.065000	222.896194
-21.341423	-6.065000	203.201599
-20.341423	-6.065000	71.288315
-19.341423	-6.065000	5.519328
-18.341423	-6.065000	6.047112
-17.341423	-6.065000	42.802582
-16.341423	-6.065000	223.450760
-15.341423	-6.065000	280.530121
-14.341423	-6.065000	234.320572
-13.341423	-6.065000	201.395126
-12.341423	-6.065000	189.454437
-11.341423	-6.065000	175.989136
-10.341423	-6.065000	223.338806
-9.341423	-6.065000	261.283600
-8.341423	-6.065000	284.261078
-7.341423	-6.065000	187.553650
-6.341423	-6.065000	108.886940
-5.341423	-6.065000	12.990457
-4.341423	-6.065000	1.547930
-3.341423	-6.065000	8.518921
-2.341423	-6.065000	67.805077
-1.341423	-6.065000	11.209428
-0.341423	-6.065000	9.101294
0.658577	-6.065000	3.146413
1.658577	-6.065000	3.001428
2.658577	-6.065000	61.829842
3.658577	-6.065000	200.218933
4.658577	-6.065000	184.232239
5.658577	-6.065000	185.972748
6.658577	-6.065000	180.050171
7.658577	-6.065000	114.296555
8.658577	-6.065000	2.878985
9.658577	-6.065000	14.813324
10.658577	-6.065000	115.734169
11.658577	-6.065000	139.256805
12.658577	-6.065000	150.521805
13.658577	-6.065000	216.604080
14.658577	-6.065000	244.901367
15.658577	-6.065000	236.217865
16.658577	-6.065000	217.768799
17.658577	-6.065000	196.315231
18.658577	-6.065000	199.038330
19.658577	-6.065000	190.225098
20.658577	-6.065000	194.345535
21.658577	-6.065000	197.264114
22.658577	-6.065000	191.622971
23.658577	-6.065000	185.245956
24.658577	-6.065000	131.635147
-39.341423	-5.065000	21.847383
-38.341423	-5.065000	101.331650
-37.341423	-5.065000	243.763672
-36.341423	-5.065000	259.717987
-35.341423	-5.065000	241.556778
-34.341423	-5.065000	238.433868
-33.341423	-5.065000	291.595154
-32.341423	-5.065000	351.396423
-31.341423	-5.065000	271.407288
-30.341423	-5.065000	255.787323
-29.341423	-5.065000	250.629028
-28.341423	-5.065000	211.482574
-27.341423	-5.065000	215.790466
-26.341423	-5.065000	180.905960
-25.341423	-5.065000	229.586502
-24.341423	-5.065000	266.092621
-23.341423	-5.065000	178.092392
-22.341423	-5.065000	162.364395
-21.341423	-5.065000	165.880539
-20.341423	-5.065000	10.684413
-19.341423	-5.065000	4.386167
-18.341423	-5.065000	2.400433
-17.341423	-5.065000	10.469772
-16.341423	-5.065000	120.805450
-15.341423	-5.065000	211.820267
-14.341423	-5.065000	253.063538
-13.341423	-5.065000	284.528778
-12.341423	-5.065000	247.548843
-11.341423	-5.065000	242.091644
-10.341423	-5.065000	273.501099
-9.341423	-5.065000	312.101746
-8.341423	-5.065000	230.366623
-7.341423	-5.065000	250.919098
-6.341423	-5.065000	253.344711
-5.341423	-5.065000	120.469490
-4.341423	-5.065000	4.215364
-3.341423	-5.065000	0.346732
-2.341423	-5.065000	6.586830
-1.341423	-5.065000	19.176714
-0.341423	-5.065000	41.139721
0.658577	-5.065000	64.330544
1.658577	-5.065000	13.164679
2.658577	-5.065000	5.236938
3.658577	-5.065000	13.948532
4.658577	-5.065000	116.819397
5.658577	-5.065000	160.907196
6.658577	-5.065000	145.203873
7.658577	-5.065000	140.172546
8.658577	-5.065000	10.943360
9.658577	-5.065000	56.016422
10.658577	-5.065000	184.409088
11.658577	-5.065000	171.852798
12.658577	-5.065000	251.900940
13.658577	-5.065000	266.537415
14.658577	-5.065000	268.827240
15.658577	-5.065000	239.978622
16.658577	-5.065000	176.202667
17.658577	-5.065000	116.025322
18.658577	-5.065000	205.827057
19.658577	-5.065000	193.574478
20.658577	-5.065000	205.698944
21.658577	-5.065000	180.635788
22.658577	-5.065000	54.701977
23.658577	-5.065000	120.295990
24.658577	-5.065000	88.996353
-39.341423	-4.065000	3.314215
-38.341423	-4.065000	34.991394
-37.341423	-4.065000	225.348907
-36.341423	-4.065000	220.113586
-35.341423	-4.065000	245.071198
-34.341423	-4.065000	268.490601
-33.341423	-4.065000	275.654999
-32.341423	-4.065000	126.023743
-31.341423	-4.065000	95.227753
-30.341423	-4.065000	101.201874
-29.341423	-4.065000	47.608871
-28.341423	-4.065000	103.878334
-27.341423	-4.065000	251.770874
-26.341423	-4.065000	255.360703
-25.341423	-4.065000	255.272858
-24.341423	-4.065000	206.487610
-23.341423	-4.065000	114.503479
-22.341423	-4.065000	150.846924
-21.341423	-4.065000	229.602737
-20.341423	-4.065000	128.230743
-19.341423	-4.065000	70.669022
-18.341423	-4.065000	28.221624
-17.341423	-4.065000	15.108418
-16.341423	-4.065000	48.217010
-15.341423	-4.065000	210.822235
-14.341423	-4.065000	239.813171
-13.341423	-4.065000	252.818100
-12.341423	-4.065000	203.284378
-11.341423	-4.065000	145.236252
-10.341423	-4.065000	186.291397
-9.341423	-4.065000	188.912109
-8.341423	-4.065000	187.496307
-7.341423	-4.065000	206.874878
-6.341423	-4.065000	165.419647
-5.341423	-4.065000	137.758698
-4.341423	-4.065000	10.687403
-3.341423	-4.065000	1.233054
-2.341423	-4.065000	8.565970
-1.341423	-4.065000	17.532101
-0.341423	-4.065000	86.320679
0.658577	-4.065000	114.736671
1.658577	-4.065000	61.327999
2.658577	-4.065000	3.360262
3.658577	-4.065000	7.516565
4.658577	-4.065000	27.144260
5.658577	-4.065000	90.508720
6.658577	-4.065000	162.598068
7.658577	-4.065000	134.895584
8.658577	-4.065000	101.780098
9.658577	-4.065000	161.869034
10.658577	-4.065000	178.385162
11.658577	-4.065000	153.290466
12.658577	-4.065000	231.389862
13.658577	-4.065000	279.699524
14.658577	-4.065000	216.058136
15.658577	-4.065000	48.025280
16.658577	-4.065000	95.735252
17.658577	-4.065000	210.402512
18.658577	-4.065000	181.248276
19.658577	-4.065000	200.776108
20.658577	-4.065000	139.451492
21.658577	-4.065000	172.904205
22.658577	-4.065000	162.555161
23.658577	-4.065000	127.472870
24.658577	-4.065000	93.533890
-39.341423	-3.065000	5.013310
-38.341423	-3.065000	13.127030
-37.341423	-3.065000	107.618912
-36.341423	-3.065000	191.271072
-35.341423	-3.065000	236.179352
-34.341423	-3.065000	294.407837
-33.341423	-3.065000	143.553558
-32.341423	-3.065000	14.597176
-31.341423	-3.065000	37.816029
-30.341423	-3.065000	236.862564
-29.341423	-3.065000	15.546031
-28.341423	-3.065000	6.421126
-27.341423	-3.065000	58.396305
-26.341423	-3.065000	248.023529
-25.341423	-3.065000	221.463638
-24.341423	-3.065000	246.668030
-23.341423	-3.065000	228.291077
-22.341423	-3.065000	169.662018
-21.341423	-3.065000	223.485306
-20.341423	-3.065000	80.229401
-19.341423	-3.065000	156.288757
-18.341423	-3.065000	136.572311
-17.341423	-3.065000	131.768341
-16.341423	-3.065000	20.064516
-15.341423	-3.065000	150.809036
-14.341423	-3.065000	272.072266
-13.341423	-3.065000	230.132401
-12.341423	-3.065000	163.060165
-11.341423	-3.065000	141.888535
-10.341423	-3.065000	170.629578
-9.341423	-3.065000	141.502579
-8.341423	-3.065000	153.070938
-7.341423	-3.065000	98.816460
-6.341423	-3.065000	118.906967
-5.341423	-3.065000	159.952301
-4.341423	-3.065000	171.428207
-3.341423	-3.065000	34.611858
-2.341423	-3.065000	126.897919
-1.341423	-3.065000	244.830658
-0.341423	-3.065000	245.741699
0.658577	-3.065000	231.737961
1.658577	-3.065000	68.412483
2.658577	-3.065000	7.798780
3.658577	-3.065000	111.771805
4.658577	-3.065000	14.027311
5.658577	-3.065000	172.823792
6.658577	-3.065000	227.494934
7.658577	-3.065000	174.759750
8.658577	-3.065000	156.831055
9.658577	-3.065000	218.831024
10.658577	-3.065000	95.402626
11.658577	-3.065000	108.982750
12.658577	-3.065000	237.290131
13.658577	-3.065000	245.213043
14.658577	-3.065000	222.083054
15.658577	-3.065000	100.346542
16.658577	-3.065000	218.574081
17.658577	-3.065000	221.894653
18.658577	-3.065000	216.057861
19.658577	-3.065000	201.435822
20.658577	-3.065000	214.692871
21.658577	-3.065000	153.690582
22.658577	-3.065000	25.115194
23.658577	-3.065000	138.947815
24.658577	-3.065000	128.122025
-39.341423	-2.065000	3.424813
-38.341423	-2.065000	52.759972
-37.341423	-2.065000	130.053162
-36.341423	-2.065000	27.331293
-35.341423	-2.065000	34.862999
-34.341423	-2.065000	40.107616
-33.341423	-2.065000	20.296305
-32.341423	-2.065000	10.402089
-31.341423	-2.065000	105.370163
-30.341423	-2.065000	201.823868
-29.341423	-2.065000	5.923455
-28.341423	-2.065000	2.608170
-27.341423	-2.065000	23.312281
-26.341423	-2.065000	218.892548
-25.341423	-2.065000	259.937500
-24.341423	-2.065000	307.824768
-23.341423	-2.065000	239.819122
-22.341423	-2.065000	192.757156
-21.341423	-2.065000	112.196289
-20.341423	-2.065000	64.315735
-19.341423	-2.065000	114.686180
-18.341423	-2.065000	18.472275
-17.341423	-2.065000	31.111824
-16.341423	-2.065000	138.358749
-15.341423	-2.065000	290.095520
-14.341423	-2.065000	270.898651
-13.341423	-2.065000	194.029297
-12.341423	-2.065000	165.532486
-11.341423	-2.065000	170.040756
-10.341423	-2.065000	236.842560
-9.341423	-2.065000	160.916580
-8.341423	-2.065000	140.143250
-7.341423	-2.065000	109.988159
-6.341423	-2.065000	138.670197
-5.341423	-2.065000	231.259842
-4.341423	-2.065000	131.391678
-3.341423	-2.065000	195.251633
-2.341423	-2.065000	262.193756
-1.341423	-2.065000	263.691376
-0.341423	-2.065000	262.060364
0.658577	-2.065000	290.715637
1.658577	-2.065000	137.722458
2.658577	-2.065000	14.282393
3.658577	-2.065000	58.993668
4.658577	-2.065000	28.682335
5.658577	-2.065000	152.369461
6.658577	-2.065000	248.428207
7.658577	-2.065000	187.100677
8.658577	-2.065000	161.641464
9.658577	-2.065000	89.187958
10.658577	-2.065000	161.375000
11.658577	-2.065000	190.117371
12.658577	-2.065000	243.312790
13.658577	-2.065000	267.285553
14.658577	-2.065000	182.457642
15.658577	-2.065000	262.322876
16.658577	-2.065000	235.726334
17.658577	-2.065000	226.554779
18.658577	-2.065000	107.243576
19.658577	-2.065000	206.704758
20.658577	-2.065000	198.070770
21.658577	-2.065000	9.523004
22.658577	-2.065000	26.753653
23.658577	-2.065000	126.805489
24.658577	-2.065000	148.523911
-39.341423	-1.065000	14.725424
-38.341423	-1.065000	21.378378
-37.341423	-1.065000	56.119144
-36.341423	-1.065000	43.310051
-35.341423	-1.065000	54.886692
-34.341423	-1.065000	54.769127
-33.341423	-1.065000	133.945938
-32.341423	-1.065000	113.221992
-31.341423	-1.065000	109.385910
-30.341423	-1.065000	60.414902
-29.341423	-1.065000	8.961528
-28.341423	-1.065000	2.425090
-27.341423	-1.065000	4.491817
-26.341423	-1.065000	98.307610
-25.341423	-1.065000	266.784058
-24.341423	-1.065000	276.994507
-23.341423	-1.065000	94.554420
-22.341423	-1.065000	159.964890
-21.341423	-1.065000	69.326538
-20.341423	-1.065000	28.547348
-19.341423	-1.065000	18.254841
-18.341423	-1.065000	30.777332
-17.341423	-1.065000	146.046631
-16.341423	-1.065000	172.503296
-15.341423	-1.065000	188.476822
-14.341423	-1.065000	282.179657
-13.341423	-1.065000	202.856216
-12.341423	-1.065000	206.641403
-11.341423	-1.065000	201.629013
-10.341423	-1.065000	190.081268
-9.341423	-1.065000	138.011124
-8.341423	-1.065000	171.239426
-7.341423	-1.065000	139.048767
-6.341423	-1.065000	150.196350
-5.341423	-1.065000	250.829269
-4.341423	-1.065000	149.134293
-3.341423	-1.065000	190.968475
-2.341423	-1.065000	234.964752
-1.341423	-1.065000	235.540970
-0.341423	-1.065000	255.780304
0.658577	-1.065000	274.095398
1.658577	-1.065000	249.687134
2.658577	-1.065000	144.011566
3.658577	-1.065000	79.072594
4.658577	-1.065000	168.185608
5.658577	-1.065000	178.913727
6.658577	-1.065000	61.869305
7.658577	-1.065000	131.133057
8.658577	-1.065000	44.469219
9.658577	-1.065000	133.299408
10.658577	-1.065000	164.513458
11.658577	-1.065000	228.440674
12.658577	-1.065000	277.014954
13.658577	-1.065000	272.272461
14.658577	-1.065000	234.694809
15.658577	-1.065000	233.611679
16.658577	-1.065000	214.299957
17.658577	-1.065000	188.667908
18.658577	-1.065000	40.535442
19.658577	-1.065000	232.196564
20.658577	-1.065000	97.663307
21.658577	-1.065000	172.337036
22.658577	-1.065000	69.693428
23.658577	-1.065000	120.910805
24.658577	-1.065000	128.797577
-39.341423	-0.065000	51.756191
-38.341423	-0.065000	52.455643
-37.341423	-0.065000	54.148914
-36.341423	-0.065000	52.295444
-35.341423	-0.065000	58.090607
-34.341423	-0.065000	79.445549
-33.341423	-0.065000	91.516289
-32.341423	-0.065000	67.568169
-31.341423	-0.065000	66.540810
-30.341423	-0.065000	61.875072
-29.341423	-0.065000	29.809048
-28.341423	-0.065000	2.692089
-27.341423	-0.065000	4.039537
-26.341423	-0.065000	32.610207
-25.341423	-0.065000	223.097000
-24.341423	-0.065000	311.752716
-23.341423	-0.065000	200.057037
-22.341423	-0.065000	32.623222
-21.341423	-0.065000	13.252071
-20.341423	-0.065000	29.683767
-19.341423	-0.065000	159.510269
-18.341423	-0.065000	149.034119
-17.341423	-0.065000	137.786285
-16.341423	-0.065000	173.478333
-15.341423	-0.065000	48.992638
-14.341423	-0.065000	256.059875
-13.341423	-0.065000	229.326080
-12.341423	-0.065000	238.343430
-11.341423	-0.065000	244.991241
-10.341423	-0.065000	183.249573
-9.341423	-0.065000	132.853195
-8.341423	-0.065000	179.584061
-7.341423	-0.065000	161.713715
-6.341423	-0.065000	192.988556
-5.341423	-0.065000	278.501465
-4.341423	-0.065000	237.612823
-3.341423	-0.065000	199.875137
-2.341423	-0.065000	268.702393
-1.341423	-0.065000	317.407257
-0.341423	-0.065000	250.471466
0.658577	-0.065000	254.744812
1.658577	-0.065000	230.712479
2.658577	-0.065000	108.220039
3.658577	-0.065000	198.701019
4.658577	-0.065000	198.177841
5.658577	-0.065000	223.236893
6.658577	-0.065000	95.518997
7.658577	-0.065000	150.759430
8.658577	-0.065000	125.857964
9.658577	-0.065000	191.515793
10.658577	-0.065000	173.586365
11.658577	-0.065000	320.824005
12.658577	-0.065000	240.650406
13.658577	-0.065000	227.888123
14.658577	-0.065000	221.581985
15.658577	-0.065000	213.791473
16.658577	-0.065000	200.760864
17.658577	-0.065000	191.351608
18.658577	-0.065000	18.009871
19.658577	-0.065000	27.510910
20.658577	-0.065000	179.045334
21.658577	-0.065000	226.186111
22.658577	-0.065000	207.732101
23.658577	-0.065000	129.219345
24.658577	-0.065000	122.460762
-39.341423	0.935000	51.463264
-38.341423	0.935000	52.160362
-37.341423	0.935000	53.010132
-36.341423	0.935000	59.841648
-35.341423	0.935000	75.280197
-34.341423	0.935000	102.997299
-33.341423	0.935000	107.799576
-32.341423	0.935000	88.952248
-31.341423	0.935000	112.748009
-30.341423	0.935000	48.484226
-29.341423	0.935000	12.790721
-28.341423	0.935000	0.809999
-27.341423	0.935000	2.835917
-26.341423	0.935000	28.664110
-25.341423	0.935000	225.960922
-24.341423	0.935000	234.172226
-23.341423	0.935000	286.735657
-22.341423	0.935000	234.329071
-21.341423	0.935000	145.225037
-20.341423	0.935000	76.648056
-19.341423	0.935000	172.694794
-18.341423	0.935000	126.564911
-17.341423	0.935000	161.230225
-16.341423	0.935000	106.789185
-15.341423	0.935000	58.356239
-14.341423	0.935000	262.174652
-13.341423	0.935000	259.938080
-12.341423	0.935000	219.899078
-11.341423	0.935000	193.107178
-10.341423	0.935000	251.179504
-9.341423	0.935000	184.480804
-8.341423	0.935000	154.952042
-7.341423	0.935000	158.890915
-6.341423	0.935000	177.404419
-5.341423	0.935000	249.154282
-4.341423	0.935000	322.808624
-3.341423	0.935000	109.748665
-2.341423	0.935000	282.169800
-1.341423	0.935000	314.901093
-0.341423	0.935000	289.166138
0.658577	0.935000	239.648605
1.658577	0.935000	70.660614
2.658577	0.935000	163.417694
3.658577	0.935000	204.031708
4.658577	0.935000	170.174164
5.658577	0.935000	217.070984
6.658577	0.935000	269.150726
7.658577	0.935000	262.085999
8.658577	0.935000	242.231186
9.658577	0.935000	253.256363
10.658577	0.935000	285.325470
11.658577	0.935000	309.256012
12.658577	0.935000	291.621460
13.658577	0.935000	233.602982
14.658577	0.935000	154.172256
15.658577	0.935000	167.101135
16.658577	0.935000	151.997406
17.658577	0.935000	166.951279
18.658577	0.935000	93.048401
19.658577	0.935000	181.630310
20.658577	0.935000	224.639450
21.658577	0.935000	269.178558
22.658577	0.935000	272.271118
23.658577	0.935000	193.844727
24.658577	0.935000	136.756516
-39.341423	1.935000	53.599098
-38.341423	1.935000	50.626263
-37.341423	1.935000	62.248394
-36.341423	1.935000	100.112480
-35.341423	1.935000	133.840927
-34.341423	1.935000	92.514420
-33.341423	1.935000	97.701279
-32.341423	1.935000	208.850723
-31.341423	1.935000	188.363861
-30.341423	1.935000	134.865494
-29.341423	1.935000	48.335278
-28.341423	1.935000	6.095236
-27.341423	1.935000	21.923824
-26.341423	1.935000	136.660904
-25.341423	1.935000	191.455811
-24.341423	1.935000	126.465866
-23.341423	1.935000	188.397980
-22.341423	1.935000	292.385132
-21.341423	1.935000	281.725433
-20.341423	1.935000	232.534485
-19.341423	1.935000	38.680389
-18.341423	1.935000	12.289892
-17.341423	1.935000	6.575000
-16.341423	1.935000	3.563224
-15.341423	1.935000	32.219807
-14.341423	1.935000	313.523224
-13.341423	1.935000	354.845154
-12.341423	1.935000	265.847748
-11.341423	1.935000	242.280807
-10.341423	1.935000	274.240356
-9.341423	1.935000	229.285217
-8.341423	1.935000	182.622849
-7.341423	1.935000	154.786453
-6.341423	1.935000	197.640488
-5.341423	1.935000	312.761841
-4.341423	1.935000	220.603180
-3.341423	1.935000	300.285828
-2.341423	1.935000	289.315369
-1.341423	1.935000	284.428284
-0.341423	1.935000	265.681458
0.658577	1.935000	214.125641
1.658577	1.935000	71.941093
2.658577	1.935000	204.281891
3.658577	1.935000	133.533173
4.658577	1.935000	141.668381
5.658577	1.935000	230.344757
6.658577	1.935000	280.633728
7.658577	1.935000	186.706696
8.658577	1.935000	103.265366
9.658577	1.935000	259.380493
10.658577	1.935000	318.435791
11.658577	1.935000	313.273468
12.658577	1.935000	276.231934
13.658577	1.935000	224.040176
14.658577	1.935000	261.298859
15.658577	1.935000	180.069916
16.658577	1.935000	168.437027
17.658577	1.935000	179.759430
18.658577	1.935000	44.764229
19.658577	1.935000	84.700394
20.658577	1.935000	182.292770
21.658577	1.935000	228.489716
22.658577	1.935000	218.778687
23.658577	1.935000	199.500595
24.658577	1.935000	246.495987
-39.341423	2.935000	64.450363
-38.341423	2.935000	98.224419
-37.341423	2.935000	127.444725
-36.341423	2.935000	101.779503
-35.341423	2.935000	86.203140
-34.341423	2.935000	59.238667
-33.341423	2.935000	88.812767
-32.341423	2.935000	151.564697
-31.341423	2.935000	184.153137
-30.341423	2.935000	190.983597
-29.341423	2.935000	156.700287
-28.341423	2.935000	97.480743
-27.341423	2.935000	153.299545
-26.341423	2.935000	173.608017
-25.341423	2.935000	270.578278
-24.341423	2.935000	148.773972
-23.341423	2.935000	147.431259
-22.341423	2.935000	197.023773
-21.341423	2.935000	292.536285
-20.341423	2.935000	131.660034
-19.341423	2.935000	29.804785
-18.341423	2.935000	7.374089
-17.341423	2.935000	9.200622
-16.341423	2.935000	2.506534
-15.341423	2.935000	4.416778
-14.341423	2.935000	30.526445
-13.341423	2.935000	90.415588
-12.341423	2.935000	211.628098
-11.341423	2.935000	234.241699
-10.341423	2.935000	225.029922
-9.341423	2.935000	200.708527
-8.341423	2.935000	233.895630
-7.341423	2.935000	178.984070
-6.341423	2.935000	202.803787
-5.341423	2.935000	276.671478
-4.341423	2.935000	254.159149
-3.341423	2.935000	250.014343
-2.341423	2.935000	239.332916
-1.341423	2.935000	218.336914
-0.341423	2.935000	234.164413
0.658577	2.935000	260.678436
1.658577	2.935000	241.911102
2.658577	2.935000	197.206131
3.658577	2.935000	120.985329
4.658577	2.935000	155.486755
5.658577	2.935000	152.701996
6.658577	2.935000	14.654321
7.658577	2.935000	20.611818
8.658577	2.935000	239.751007
9.658577	2.935000	314.138702
10.658577	2.935000	278.494324
11.658577	2.935000	271.168579
12.658577	2.935000	274.446899
13.658577	2.935000	281.818817
14.658577	2.935000	317.072021
15.658577	2.935000	210.511383
16.658577	2.935000	183.968994
17.658577	2.935000	228.461075
18.658577	2.935000	57.241394
19.658577	2.935000	15.298839
20.658577	2.935000	57.048782
21.658577	2.935000	192.435303
22.658577	2.935000	233.856506
23.658577	2.935000	252.033890
24.658577	2.935000	100.026367
-39.341423	3.935000	165.498383
-38.341423	3.935000	157.338074
-37.341423	3.935000	129.033295
-36.341423	3.935000	235.260223
-35.341423	3.935000	184.251968
-34.341423	3.935000	61.311790
-33.341423	3.935000	66.194725
-32.341423	3.935000	117.420853
-31.341423	3.935000	174.670120
-30.341423	3.935000	196.316406
-29.341423	3.935000	200.875137
-28.341423	3.935000	260.358124
-27.341423	3.935000	243.834747
-26.341423	3.935000	240.292511
-25.341423	3.935000	300.824768
-24.341423	3.935000	199.555862
-23.341423	3.935000	127.081482
-22.341423	3.935000	175.244370
-21.341423	3.935000	260.242432
-20.341423	3.935000	231.553177
-19.341423	3.935000	98.760590
-18.341423	3.935000	183.802567
-17.341423	3.935000	173.666245
-16.341423	3.935000	21.003332
-15.341423	3.935000	32.263973
-14.341423	3.935000	8.927914
-13.341423	3.935000	20.851810
-12.341423	3.935000	195.800598
-11.341423	3.935000	208.545837
-10.341423	3.935000	291.838684
-9.341423	3.935000	238.225937
-8.341423	3.935000	180.606781
-7.341423	3.935000	177.601151
-6.341423	3.935000	87.623604
-5.341423	3.935000	255.140930
-4.341423	3.935000	35.484959
-3.341423	3.935000	173.627274
-2.341423	3.935000	307.120667
-1.341423	3.935000	270.747894
-0.341423	3.935000	278.409363
0.658577	3.935000	303.295044
1.658577	3.935000	228.971909
2.658577	3.935000	153.111343
3.658577	3.935000	137.021011
4.658577	3.935000	207.238754
5.658577	3.935000	251.930756
6.658577	3.935000	169.100494
7.658577	3.935000	128.917542
8.658577	3.935000	308.174805
9.658577	3.935000	287.756317
10.658577	3.935000	185.763977
11.658577	3.935000	245.592484
12.658577	3.935000	270.135529
13.658577	3.935000	285.405334
14.658577	3.935000	304.871613
15.658577	3.935000	244.074402
16.658577	3.935000	205.234406
17.658577	3.935000	236.722336
18.658577	3.935000	241.146957
19.658577	3.935000	241.656952
20.658577	3.935000	239.068375
21.658577	3.935000	207.428024
22.658577	3.935000	235.258652
23.658577	3.935000	142.176086
24.658577	3.935000	75.119904
-39.341423	4.935000	245.343185
-38.341423	4.935000	251.497955
-37.341423	4.935000	253.857819
-36.341423	4.935000	359.642883
-35.341423	4.935000	333.017334
-34.341423	4.935000	181.587601
-33.341423	4.935000	78.731995
-32.341423	4.935000	144.829971
-31.341423	4.935000	188.910568
-30.341423	4.935000	202.855606
-29.341423	4.935000	156.433075
-28.341423	4.935000	96.841843
-27.341423	4.935000	124.810959
-26.341423	4.935000	157.346466
-25.341423	4.935000	278.674103
-24.341423	4.935000	200.026917
-23.341423	4.935000	202.627670
-22.341423	4.935000	233.573898
-21.341423	4.935000	193.387985
-20.341423	4.935000	167.994385
-19.341423	4.935000	273.980499
-18.341423	4.935000	292.797150
-17.341423	4.935000	305.519135
-16.341423	4.935000	208.794571
-15.341423	4.935000	132.644318
-14.341423	4.935000	70.300850
-13.341423	4.935000	7.085859
-12.341423	4.935000	51.830608
-11.341423	4.935000	184.142761
-10.341423	4.935000	241.121460
-9.341423	4.935000	271.564514
-8.341423	4.935000	209.350128
-7.341423	4.935000	175.819000
-6.341423	4.935000	25.806095
-5.341423	4.935000	8.849161
-4.341423	4.935000	11.226707
-3.341423	4.935000	191.307480
-2.341423	4.935000	245.390091
-1.341423	4.935000	275.219025
-0.341423	4.935000	267.670227
0.658577	4.935000	276.664093
1.658577	4.935000	210.174866
2.658577	4.935000	114.076103
3.658577	4.935000	173.984344
4.658577	4.935000	87.744789
5.658577	4.935000	148.463745
6.658577	4.935000	233.678513
7.658577	4.935000	264.955475
8.658577	4.935000	306.231201
9.658577	4.935000	321.177795
10.658577	4.935000	260.493378
11.658577	4.935000	178.902649
12.658577	4.935000	287.256378
13.658577	4.935000	284.139343
14.658577	4.935000	312.493835
15.658577	4.935000	248.252243
16.658577	4.935000	233.290924
17.658577	4.935000	245.513962
18.658577	4.935000	275.497681
19.658577	4.935000	270.336060
20.658577	4.935000	219.917633
21.658577	4.935000	242.586411
22.658577	4.935000	206.220764
23.658577	4.935000	150.577606
24.658577	4.935000	74.964844
-39.341423	5.935000	350.588928
-38.341423	5.935000	319.434631
-37.341423	5.935000	281.049255
-36.341423	5.935000	304.688141
-35.341423	5.935000	288.980682
-34.341423	5.935000	260.411743
-33.341423	5.935000	148.902496
-32.341423	5.935000	211.229660
-31.341423	5.935000	45.880596
-30.341423	5.935000	21.496687
-29.341423	5.935000	30.011984
-28.341423	5.935000	3.940612
-27.341423	5.935000	22.600481
-26.341423	5.935000	168.319946
-25.341423	5.935000	228.899811
-24.341423	5.935000	272.478943
-23.341423	5.935000	231.782349
-22.341423	5.935000	122.622078
-21.341423	5.935000	39.136665
-20.341423	5.935000	101.604301
-19.341423	5.935000	278.987732
-18.341423	5.935000	271.390656
-17.341423	5.935000	246.248642
-16.341423	5.935000	294.215637
-15.341423	5.935000	288.913391
-14.341423	5.935000	206.638977
-13.341423	5.935000	32.195202
-12.341423	5.935000	55.571972
-11.341423	5.935000	205.795990
-10.341423	5.935000	230.882919
-9.341423	5.935000	238.530411
-8.341423	5.935000	210.399307
-7.341423	5.935000	152.917450
-6.341423	5.935000	209.487549
-5.341423	5.935000	7.853961
-4.341423	5.935000	16.818190
-3.341423	5.935000	192.385986
-2.341423	5.935000	267.097137
-1.341423	5.935000	293.492706
-0.341423	5.935000	272.464325
0.658577	5.935000	269.609650
1.658577	5.935000	234.898087
2.658577	5.935000	235.783096
3.658577	5.935000	106.570152
4.658577	5.935000	66.921722
5.658577	5.935000	104.373001
6.658577	5.935000	226.882843
7.658577	5.935000	217.880493
8.658577	5.935000	217.483459
9.658577	5.935000	260.652924
10.658577	5.935000	357.026672
11.658577	5.935000	314.738586
12.658577	5.935000	255.602203
13.658577	5.935000	279.437347
14.658577	5.935000	275.060730
15.658577	5.935000	220.530472
16.658577	5.935000	27.029860
17.658577	5.935000	82.492561
18.658577	5.935000	303.661469
19.658577	5.935000	203.557587
20.658577	5.935000	231.083984
21.658577	5.935000	286.896637
22.658577	5.935000	210.909119
23.658577	5.935000	172.595367
24.658577	5.935000	108.255974
-39.341423	6.935000	347.695526
-38.341423	6.935000	314.632416
-37.341423	6.935000	344.017029
-36.341423	6.935000	264.798309
-35.341423	6.935000	283.292480
-34.341423	6.935000	264.113586
-33.341423	6.935000	239.987305
-32.341423	6.935000	241.581161
-31.341423	6.935000	131.941162
-30.341423	6.935000	216.110809
-29.341423	6.935000	168.458557
-28.341423	6.935000	12.803000
-27.341423	6.935000	61.528370
-26.341423	6.935000	151.353867
-25.341423	6.935000	144.647964
-24.341423	6.935000	292.943848
-23.341423	6.935000	126.859520
-22.341423	6.935000	160.662811
-21.341423	6.935000	150.291702
-20.341423	6.935000	244.661133
-19.341423	6.935000	282.590118
-18.341423	6.935000	304.272675
-17.341423	6.935000	281.391327
-16.341423	6.935000	297.611572
-15.341423	6.935000	312.866364
-14.341423	6.935000	258.062561
-13.341423	6.935000	236.321335
-12.341423	6.935000	78.312584
-11.341423	6.935000	72.593086
-10.341423	6.935000	119.187172
-9.341423	6.935000	135.025650
-8.341423	6.935000	157.792038
-7.341423	6.935000	192.441818
-6.341423	6.935000	212.841324
-5.341423	6.935000	62.047199
-4.341423	6.935000	42.249001
-3.341423	6.935000	191.320282
-2.341423	6.935000	260.077484
-1.341423	6.935000	256.531036
-0.341423	6.935000	277.269287
0.658577	6.935000	266.777557
1.658577	6.935000	220.256958
2.658577	6.935000	137.251511
3.658577	6.935000	32.065220
4.658577	6.935000	47.380970
5.658577	6.935000	124.279785
6.658577	6.935000	211.642227
7.658577	6.935000	236.588058
8.658577	6.935000	218.920135
9.658577	6.935000	217.721176
10.658577	6.935000	246.761810
11.658577	6.935000	282.294373
12.658577	6.935000	286.294373
13.658577	6.935000	254.986450
14.658577	6.935000	34.752281
15.658577	6.935000	148.055893
16.658577	6.935000	80.578140
17.658577	6.935000	80.585495
18.658577	6.935000	276.213196
19.658577	6.935000	135.085815
20.658577	6.935000	269.440155
21.658577	6.935000	273.705811
22.658577	6.935000	85.918709
23.658577	6.935000	216.334412
24.658577	6.935000	178.002060
-39.341423	7.935000	327.186066
-38.341423	7.935000	318.803528
-37.341423	7.935000	334.033112
-36.341423	7.935000	332.874786
-35.341423	7.935000	316.085175
-34.341423	7.935000	282.228333
-33.341423	7.935000	256.244934
-32.341423	7.935000	265.387482
-31.341423	7.935000	262.723358
-30.341423	7.935000	280.291931
-29.341423	7.935000	235.817673
-28.341423	7.935000	93.132584
-27.341423	7.935000	192.006729
-26.341423	7.935000	194.215485
-25.341423	7.935000	192.397705
-24.341423	7.935000	173.255112
-23.341423	7.935000	144.186951
-22.341423	7.935000	154.453537
-21.341423	7.935000	173.785065
-20.341423	7.935000	181.383560
-19.341423	7.935000	170.995346
-18.341423	7.935000	237.019623
-17.341423	7.935000	117.318123
-16.341423	7.935000	213.709518
-15.341423	7.935000	360.287201
-14.341423	7.935000	233.792877
-13.341423	7.935000	212.863327
-12.341423	7.935000	287.083008
-11.341423	7.935000	101.560265
-10.341423	7.935000	101.511406
-9.341423	7.935000	105.642555
-8.341423	7.935000	122.086815
-7.341423	7.935000	109.384895
-6.341423	7.935000	156.992859
-5.341423	7.935000	215.559799
-4.341423	7.935000	97.582191
-3.341423	7.935000	198.278412
-2.341423	7.935000	215.686722
-1.341423	7.935000	297.206024
-0.341423	7.935000	309.114594
0.658577	7.935000	248.494461
1.658577	7.935000	194.718796
2.658577	7.935000	168.885788
3.658577	7.935000	140.800674
4.658577	7.935000	149.713333
5.658577	7.935000	149.497238
6.658577	7.935000	142.352982
7.658577	7.935000	156.999680
8.658577	7.935000	239.179062
9.658577	7.935000	240.270370
10.658577	7.935000	216.984222
11.658577	7.935000	258.092499
12.658577	7.935000	254.389771
13.658577	7.935000	168.801147
14.658577	7.935000	116.728859
15.658577	7.935000	114.650314
16.658577	7.935000	138.485123
17.658577	7.935000	147.695831
18.658577	7.935000	109.821129
19.658577	7.935000	9.798481
20.658577	7.935000	65.428947
21.658577	7.935000	185.430099
22.658577	7.935000	215.015762
23.658577	7.935000	181.369980
24.658577	7.935000	272.290955
-39.341423	8.935000	267.022552
-38.341423	8.935000	243.659317
-37.341423	8.935000	253.811798
-36.341423	8.935000	274.306030
-35.341423	8.935000	307.099548
-34.341423	8.935000	334.590118
-33.341423	8.935000	303.248871
-32.341423	8.935000	294.725647
-31.341423	8.935000	288.570251
-30.341423	8.935000	249.437454
-29.341423	8.935000	204.101776
-28.341423	8.935000	183.296814
-27.341423	8.935000	182.744995
-26.341423	8.935000	206.683685
-25.341423	8.935000	179.460693
-24.341423	8.935000	183.098434
-23.341423	8.935000	154.175186
-22.341423	8.935000	190.951492
-21.341423	8.935000	160.285675
-20.341423	8.935000	193.879456
-19.341423	8.935000	188.089340
-18.341423	8.935000	199.774170
-17.341423	8.935000	252.994110
-16.341423	8.935000	291.886932
-15.341423	8.935000	303.175110
-14.341423	8.935000	255.081497
-13.341423	8.935000	268.543854
-12.341423	8.935000	157.131577
-11.341423	8.935000	125.080849
-10.341423	8.935000	107.578667
-9.341423	8.935000	100.909271
-8.341423	8.935000	106.714569
-7.341423	8.935000	127.513634
-6.341423	8.935000	164.374619
-5.341423	8.935000	181.912567
-4.341423	8.935000	199.765289
-3.341423	8.935000	181.730576
-2.341423	8.935000	191.685074
-1.341423	8.935000	271.201080
-0.341423	8.935000	273.008209
0.658577	8.935000	214.260391
1.658577	8.935000	184.822571
2.658577	8.935000	120.361923
3.658577	8.935000	179.471786
4.658577	8.935000	225.592743
5.658577	8.935000	200.430573
6.658577	8.935000	185.670990
7.658577	8.935000	140.852081
8.658577	8.935000	148.274994
9.658577	8.935000	156.063217
10.658577	8.935000	177.397202
11.658577	8.935000	197.425735
12.658577	8.935000	226.793121
13.658577	8.935000	22.732803
14.658577	8.935000	94.812111
15.658577	8.935000	11.863555
16.658577	8.935000	21.898668
17.658577	8.935000	158.877075
18.658577	8.935000	7.242920
19.658577	8.935000	2.470498
20.658577	8.935000	3.346197
21.658577	8.935000	16.498943
22.658577	8.935000	10.794410
23.658577	8.935000	13.408564
24.658577	8.935000	93.932655
-39.341423	9.935000	278.664093
-38.341423	9.935000	233.952072
-37.341423	9.935000	211.000763
-36.341423	9.935000	242.908722
-35.341423	9.935000	292.228851
-34.341423	9.935000	248.224167
-33.341423	9.935000	244.178482
-32.341423	9.935000	261.385773
-31.341423	9.935000	280.266632
-30.341423	9.935000	275.726776
-29.341423	9.935000	256.189850
-28.341423	9.935000	206.401062
-27.341423	9.935000	170.300705
-26.341423	9.935000	152.526886
-25.341423	9.935000	135.742020
-24.341423	9.935000	39.286579
-23.341423	9.935000	122.074257
-22.341423	9.935000	182.746307
-21.341423	9.935000	208.580185
-20.341423	9.935000	179.282486
-19.341423	9.935000	195.980209
-18.341423	9.935000	217.797607
-17.341423	9.935000	262.967712
-16.341423	9.935000	223.381271
-15.341423	9.935000	202.732895
-14.341423	9.935000	290.855957
-13.341423	9.935000	197.376541
-12.341423	9.935000	190.556931
-11.341423	9.935000	124.112442
-10.341423	9.935000	111.674797
-9.341423	9.935000	95.520966
-8.341423	9.935000	111.381088
-7.341423	9.935000	131.622559
-6.341423	9.935000	287.341095
-5.341423	9.935000	255.538635
-4.341423	9.935000	245.933716
-3.341423	9.935000	134.222595
-2.341423	9.935000	181.698181
-1.341423	9.935000	279.113647
-0.341423	9.935000	295.015594
0.658577	9.935000	245.774536
1.658577	9.935000	103.670631
2.658577	9.935000	205.001633
3.658577	9.935000	204.434708
4.658577	9.935000	82.164230
5.658577	9.935000	108.370621
6.658577	9.935000	134.193970
7.658577	9.935000	158.422974
8.658577	9.935000	155.603180
9.658577	9.935000	176.224808
10.658577	9.935000	165.370667
11.658577	9.935000	170.868134
12.658577	9.935000	190.845169
13.658577	9.935000	9.391750
14.658577	9.935000	2.123215
15.658577	9.935000	1.728916
16.658577	9.935000	3.887166
17.658577	9.935000	3.650653
18.658577	9.935000	0.000000
19.658577	9.935000	2.955910
20.658577	9.935000	24.075960
21.658577	9.935000	93.838097
22.658577	9.935000	36.366451
23.658577	9.935000	8.191934
24.658577	9.935000	11.580999
-39.341423	10.935000	207.017273
-38.341423	10.935000	221.210617
-37.341423	10.935000	238.131180
-36.341423	10.935000	274.778595
-35.341423	10.935000	266.300262
-34.341423	10.935000	251.032562
-33.341423	10.935000	215.035172
-32.341423	10.935000	259.397003
-31.341423	10.935000	324.368500
-30.341423	10.935000	288.576904
-29.341423	10.935000	260.740173
-28.341423	10.935000	198.265198
-27.341423	10.935000	109.874565
-26.341423	10.935000	138.550125
-25.341423	10.935000	26.431889
-24.341423	10.935000	5.565414
-23.341423	10.935000	30.204857
-22.341423	10.935000	162.602615
-21.341423	10.935000	85.879158
-20.341423	10.935000	112.017036
-19.341423	10.935000	205.849442
-18.341423	10.935000	168.558990
-17.341423	10.935000	162.231155
-16.341423	10.935000	177.687607
-15.341423	10.935000	255.439316
-14.341423	10.935000	180.226105
-13.341423	10.935000	189.469360
-12.341423	10.935000	123.017509
-11.341423	10.935000	112.810120
-10.341423	10.935000	97.439354
-9.341423	10.935000	121.547012
-8.341423	10.935000	109.166763
-7.341423	10.935000	139.105804
-6.341423	10.935000	259.363525
-5.341423	10.935000	273.986481
-4.341423	10.935000	267.444611
-3.341423	10.935000	73.310387
-2.341423	10.935000	147.674484
-1.341423	10.935000	270.208984
-0.341423	10.935000	221.510971
0.658577	10.935000	239.402191
1.658577	10.935000	160.036270
2.658577	10.935000	220.244125
3.658577	10.935000	222.399368
4.658577	10.935000	148.179016
5.658577	10.935000	129.919266
6.658577	10.935000	152.914627
7.658577	10.935000	182.551208
8.658577	10.935000	38.723961
9.658577	10.935000	68.939934
10.658577	10.935000	41.751709
11.658577	10.935000	173.726654
12.658577	10.935000	131.047226
13.658577	10.935000	11.478028
14.658577	10.935000	0.185004
15.658577	10.935000	2.611747
16.658577	10.935000	2.356706
17.658577	10.935000	0.000000
18.658577	10.935000	0.833367
19.658577	10.935000	7.414732
20.658577	10.935000	86.337082
21.658577	10.935000	107.182976
22.658577	10.935000	93.571480
23.658577	10.935000	36.130554
24.658577	10.935000	39.803368
-39.341423	11.935000	187.291473
-38.341423	11.935000	244.967926
-37.341423	11.935000	216.502426
-36.341423	11.935000	278.357178
-35.341423	11.935000	230.170090
-34.341423	11.935000	223.695480
-33.341423	11.935000	194.592239
-32.341423	11.935000	228.823288
-31.341423	11.935000	272.241821
-30.341423	11.935000	346.803772
-29.341423	11.935000	342.751953
-28.341423	11.935000	264.789551
-27.341423	11.935000	34.131264
-26.341423	11.935000	134.225128
-25.341423	11.935000	9.474452
-24.341423	11.935000	6.900530
-23.341423	11.935000	70.541458
-22.341423	11.935000	163.741013
-21.341423	11.935000	77.438377
-20.341423	11.935000	101.942619
-19.341423	11.935000	209.248703
-18.341423	11.935000	127.073517
-17.341423	11.935000	143.013916
-16.341423	11.935000	175.612198
-15.341423	11.935000	297.622559
-14.341423	11.935000	288.302521
-13.341423	11.935000	226.454010
-12.341423	11.935000	123.250000
-11.341423	11.935000	97.100525
-10.341423	11.935000	82.550705
-9.341423	11.935000	111.067459
-8.341423	11.935000	118.184921
-7.341423	11.935000	119.018600
-6.341423	11.935000	105.770599
-5.341423	11.935000	240.983780
-4.341423	11.935000	236.148987
-3.341423	11.935000	91.825325
-2.341423	11.935000	60.564785
-1.341423	11.935000	291.826355
-0.341423	11.935000	255.641785
0.658577	11.935000	232.524414
1.658577	11.935000	176.308258
2.658577	11.935000	149.957138
3.658577	11.935000	86.734322
4.658577	11.935000	90.439056
5.658577	11.935000	146.946014
6.658577	11.935000	175.537445
7.658577	11.935000	226.116196
8.658577	11.935000	206.411972
9.658577	11.935000	158.596207
10.658577	11.935000	215.229614
11.658577	11.935000	229.535492
12.658577	11.935000	172.626572
13.658577	11.935000	63.003643
14.658577	11.935000	3.659722
15.658577	11.935000	0.000000
16.658577	11.935000	0.000000
17.658577	11.935000	10.203425
18.658577	11.935000	6.770167
19.658577	11.935000	0.000000
20.658577	11.935000	33.399857
21.658577	11.935000	66.281326
22.658577	11.935000	107.829735
23.658577	11.935000	118.328300
24.658577	11.935000	113.885750
-39.341423	12.935000	265.305420
-38.341423	12.935000	302.881805
-37.341423	12.935000	271.650848
-36.341423	12.935000	272.737183
-35.341423	12.935000	277.721252
-34.341423	12.935000	274.152710
-33.341423	12.935000	267.625183
-32.341423	12.935000	249.616531
-31.341423	12.935000	293.285889
-30.341423	12.935000	311.755066
-29.341423	12.935000	312.838379
-28.341423	12.935000	158.525223
-27.341423	12.935000	64.615242
-26.341423	12.935000	33.090122
-25.341423	12.935000	5.072305
-24.341423	12.935000	69.253380
-23.341423	12.935000	195.861832
-22.341423	12.935000	207.265198
-21.341423	12.935000	159.141327
-20.341423	12.935000	193.724503
-19.341423	12.935000	252.969833
-18.341423	12.935000	207.155304
-17.341423	12.935000	146.826660
-16.341423	12.935000	164.004913
-15.341423	12.935000	270.322998
-14.341423	12.935000	298.751740
-13.341423	12.935000	205.216110
-12.341423	12.935000	144.792374
-11.341423	12.935000	110.858604
-10.341423	12.935000	98.734703
-9.341423	12.935000	104.402977
-8.341423	12.935000	174.671921
-7.341423	12.935000	151.928268
-6.341423	12.935000	11.822490
-5.341423	12.935000	110.233856
-4.341423	12.935000	252.007324
-3.341423	12.935000	196.345825
-2.341423	12.935000	168.192993
-1.341423	12.935000	207.605499
-0.341423	12.935000	109.955673
0.658577	12.935000	200.831940
1.658577	12.935000	134.126892
2.658577	12.935000	179.484482
3.658577	12.935000	91.696899
4.658577	12.935000	107.558624
5.658577	12.935000	96.551331
6.658577	12.935000	267.258453
7.658577	12.935000	253.517288
8.658577	12.935000	196.113770
9.658577	12.935000	235.707260
10.658577	12.935000	211.776535
11.658577	12.935000	244.448151
12.658577	12.935000	196.344330
13.658577	12.935000	41.397324
14.658577	12.935000	3.524073
15.658577	12.935000	0.000000
16.658577	12.935000	0.000000
17.658577	12.935000	0.000000
18.658577	12.935000	5.456939
19.658577	12.935000	0.000000
20.658577	12.935000	2.341710
21.658577	12.935000	0.856908
22.658577	12.935000	39.773998
23.658577	12.935000	81.499763
24.658577	12.935000	25.644976
-39.341423	13.935000	288.942963
-38.341423	13.935000	299.419464
-37.341423	13.935000	313.072021
-36.341423	13.935000	289.353210
-35.341423	13.935000	252.910263
-34.341423	13.935000	258.205658
-33.341423	13.935000	244.022797
-32.341423	13.935000	226.448166
-31.341423	13.935000	274.441406
-30.341423	13.935000	262.186920
-29.341423	13.935000	196.132828
-28.341423	13.935000	159.879074
-27.341423	13.935000	146.988327
-26.341423	13.935000	126.862267
-25.341423	13.935000	43.251740
-24.341423	13.935000	81.087349
-23.341423	13.935000	190.119247
-22.341423	13.935000	225.731308
-21.341423	13.935000	224.308685
-20.341423	13.935000	186.657822
-19.341423	13.935000	207.596390
-18.341423	13.935000	223.680908
-17.341423	13.935000	69.363289
-16.341423	13.935000	171.887573
-15.341423	13.935000	165.862228
-14.341423	13.935000	298.717072
-13.341423	13.935000	228.919098
-12.341423	13.935000	140.726471
-11.341423	13.935000	144.566315
-10.341423	13.935000	30.127146
-9.341423	13.935000	129.556488
-8.341423	13.935000	190.598602
-7.341423	13.935000	174.559967
-6.341423	13.935000	97.701897
-5.341423	13.935000	156.173157
-4.341423	13.935000	148.508011
-3.341423	13.935000	139.783813
-2.341423	13.935000	106.339363
-1.341423	13.935000	149.031006
-0.341423	13.935000	126.601654
0.658577	13.935000	205.726669
1.658577	13.935000	124.279015
2.658577	13.935000	176.196426
3.658577	13.935000	35.437794
4.658577	13.935000	4.479500
5.658577	13.935000	9.214394
6.658577	13.935000	121.842056
7.658577	13.935000	221.483444
8.658577	13.935000	197.864304
9.658577	13.935000	211.537781
10.658577	13.935000	230.667435
11.658577	13.935000	200.747818
12.658577	13.935000	165.339783
13.658577	13.935000	9.867708
14.658577	13.935000	1.397879
15.658577	13.935000	0.000000
16.658577	13.935000	5.737700
17.658577	13.935000	5.681217
18.658577	13.935000	0.000000
19.658577	13.935000	1.252773
20.658577	13.935000	0.000000
21.658577	13.935000	1.803718
22.658577	13.935000	0.879705
23.658577	13.935000	5.885490
24.658577	13.935000	6.446784
-39.341423	14.935000	273.083740
-38.341423	14.935000	268.959747
-37.341423	14.935000	297.481659
-36.341423	14.935000	299.643677
-35.341423	14.935000	273.420410
-34.341423	14.935000	244.315689
-33.341423	14.935000	245.672455
-32.341423	14.935000	249.614349
-31.341423	14.935000	249.256226
-30.341423	14.935000	219.453094
-29.341423	14.935000	146.651688
-28.341423	14.935000	154.547928
-27.341423	14.935000	148.278198
-26.341423	14.935000	146.412857
-25.341423	14.935000	129.161057
-24.341423	14.935000	40.566017
-23.341423	14.935000	36.621696
-22.341423	14.935000	91.719658
-21.341423	14.935000	242.691956
-20.341423	14.935000	195.856674
-19.341423	14.935000	215.184891
-18.341423	14.935000	157.532516
-17.341423	14.935000	140.041626
-16.341423	14.935000	260.833710
-15.341423	14.935000	150.640808
-14.341423	14.935000	116.204605
-13.341423	14.935000	168.231033
-12.341423	14.935000	184.977005
-11.341423	14.935000	53.490471
-10.341423	14.935000	3.967730
-9.341423	14.935000	9.444858
-8.341423	14.935000	85.278954
-7.341423	14.935000	222.959244
-6.341423	14.935000	225.324463
-5.341423	14.935000	195.755661
-4.341423	14.935000	150.381119
-3.341423	14.935000	83.134384
-2.341423	14.935000	12.052447
-1.341423	14.935000	152.864685
-0.341423	14.935000	205.706284
0.658577	14.935000	157.101044
1.658577	14.935000	194.249344
2.658577	14.935000	198.532379
3.658577	14.935000	54.180862
4.658577	14.935000	3.914969
5.658577	14.935000	23.878580
6.658577	14.935000	4.792041
7.658577	14.935000	26.427580
8.658577	14.935000	178.498474
9.658577	14.935000	223.996719
10.658577	14.935000	244.343079
11.658577	14.935000	216.891739
12.658577	14.935000	109.621902
13.658577	14.935000	7.028968
14.658577	14.935000	0.000000
15.658577	14.935000	0.000000
16.658577	14.935000	2.393199
17.658577	14.935000	0.000000
18.658577	14.935000	6.612789
19.658577	14.935000	0.000000
20.658577	14.935000	0.421634
21.658577	14.935000	2.327065
22.658577	14.935000	0.000000
23.658577	14.935000	8.666229
24.658577	14.935000	0.000000
-39.341423	15.935000	308.390381
-38.341423	15.935000	313.568146
-37.341423	15.935000	270.505310
-36.341423	15.935000	269.498688
-35.341423	15.935000	264.232605
-34.341423	15.935000	245.943100
-33.341423	15.935000	261.633881
-32.341423	15.935000	263.302277
-31.341423	15.935000	239.858856
-30.341423	15.935000	192.868164
-29.341423	15.935000	174.312531
-28.341423	15.935000	139.616928
-27.341423	15.935000	157.335205
-26.341423	15.935000	155.514099
-25.341423	15.935000	133.130600
-24.341423	15.935000	93.391617
-23.341423	15.935000	8.103071
-22.341423	15.935000	8.231315
-21.341423	15.935000	34.112526
-20.341423	15.935000	141.893463
-19.341423	15.935000	210.716629
-18.341423	15.935000	146.094437
-17.341423	15.935000	239.225433
-16.341423	15.935000	303.598480
-15.341423	15.935000	257.961731
-14.341423	15.935000	254.663315
-13.341423	15.935000	295.317657
-12.341423	15.935000	266.700623
-11.341423	15.935000	189.811829
-10.341423	15.935000	7.549764
-9.341423	15.935000	6.236992
-8.341423	15.935000	10.006277
-7.341423	15.935000	142.133179
-6.341423	15.935000	99.753151
-5.341423	15.935000	90.493202
-4.341423	15.935000	123.971405
-3.341423	15.935000	129.059631
-2.341423	15.935000	86.296326
-1.341423	15.935000	123.527122
-0.341423	15.935000	211.408127
0.658577	15.935000	178.790390
1.658577	15.935000	239.550430
2.658577	15.935000	246.650467
3.658577	15.935000	62.594910
4.658577	15.935000	1.462221
5.658577	15.935000	1.971134
6.658577	15.935000	8.296244
7.658577	15.935000	3.457176
8.658577	15.935000	12.006097
9.658577	15.935000	200.682861
10.658577	15.935000	171.555191
11.658577	15.935000	29.345835
12.658577	15.935000	72.592445
13.658577	15.935000	20.849434
14.658577	15.935000	0.099483
15.658577	15.935000	6.957359
16.658577	15.935000	6.933131
17.658577	15.935000	17.832239
18.658577	15.935000	0.000000
19.658577	15.935000	2.940790
20.658577	15.935000	0.000000
21.658577	15.935000	2.141288
22.658577	15.935000	1.411792
23.658577	15.935000	3.177167
24.658577	15.935000	2.352299
