#XList		#YList		#IList		
-39.341423	-21.065000	2713.706055
-38.341423	-21.065000	2708.382568
-37.341423	-21.065000	2711.644287
-36.341423	-21.065000	2711.932861
-35.341423	-21.065000	2713.388184
-34.341423	-21.065000	2707.080566
-33.341423	-21.065000	2701.671387
-32.341423	-21.065000	2704.609131
-31.341423	-21.065000	2702.970703
-30.341423	-21.065000	2704.517334
-29.341423	-21.065000	2702.346924
-28.341423	-21.065000	2697.639404
-27.341423	-21.065000	2700.162109
-26.341423	-21.065000	2699.706055
-25.341423	-21.065000	2701.478516
-24.341423	-21.065000	2705.094482
-23.341423	-21.065000	2686.489990
-22.341423	-21.065000	2726.968994
-21.341423	-21.065000	2707.621338
-20.341423	-21.065000	2702.310303
-19.341423	-21.065000	2728.140625
-18.341423	-21.065000	2711.955078
-17.341423	-21.065000	2694.717285
-16.341423	-21.065000	2698.825439
-15.341423	-21.065000	2699.794922
-14.341423	-21.065000	2695.818115
-13.341423	-21.065000	2701.802002
-12.341423	-21.065000	2701.042725
-11.341423	-21.065000	2714.638428
-10.341423	-21.065000	2750.000000
-9.341423	-21.065000	2716.115723
-8.341423	-21.065000	2708.382324
-7.341423	-21.065000	2707.879639
-6.341423	-21.065000	2702.913330
-5.341423	-21.065000	2697.639648
-4.341423	-21.065000	2699.568359
-3.341423	-21.065000	2719.752441
-2.341423	-21.065000	2712.171387
-1.341423	-21.065000	2711.700928
-0.341423	-21.065000	2706.335205
0.658577	-21.065000	2706.963623
1.658577	-21.065000	2705.673340
2.658577	-21.065000	2702.563232
3.658577	-21.065000	2701.054932
4.658577	-21.065000	2710.855469
5.658577	-21.065000	2714.981689
6.658577	-21.065000	2708.955566
7.658577	-21.065000	2700.077393
8.658577	-21.065000	2710.496338
9.658577	-21.065000	2706.445313
10.658577	-21.065000	2705.685791
11.658577	-21.065000	2702.456055
12.658577	-21.065000	2702.502441
13.658577	-21.065000	2701.939697
14.658577	-21.065000	2699.586914
15.658577	-21.065000	2709.339355
16.658577	-21.065000	2713.231934
17.658577	-21.065000	2709.989502
18.658577	-21.065000	2701.353027
19.658577	-21.065000	2704.532715
20.658577	-21.065000	2706.853027
21.658577	-21.065000	2710.508301
22.658577	-21.065000	2678.867676
23.658577	-21.065000	2650.000000
24.658577	-21.065000	2750.000000
-39.341423	-20.065000	2710.634521
-38.341423	-20.065000	2713.312500
-37.341423	-20.065000	2711.916992
-36.341423	-20.065000	2710.087646
-35.341423	-20.065000	2710.866211
-34.341423	-20.065000	2707.504395
-33.341423	-20.065000	2707.203613
-32.341423	-20.065000	2698.929932
-31.341423	-20.065000	2703.849365
-30.341423	-20.065000	2697.673828
-29.341423	-20.065000	2703.611084
-28.341423	-20.065000	2703.666748
-27.341423	-20.065000	2699.008057
-26.341423	-20.065000	2701.738525
-25.341423	-20.065000	2697.122559
-24.341423	-20.065000	2700.740479
-23.341423	-20.065000	2701.457275
-22.341423	-20.065000	2703.492432
-21.341423	-20.065000	2699.920410
-20.341423	-20.065000	2697.429443
-19.341423	-20.065000	2708.962402
-18.341423	-20.065000	2709.022705
-17.341423	-20.065000	2700.630615
-16.341423	-20.065000	2699.963379
-15.341423	-20.065000	2699.877686
-14.341423	-20.065000	2700.121582
-13.341423	-20.065000	2700.528809
-12.341423	-20.065000	2699.336670
-11.341423	-20.065000	2708.761963
-10.341423	-20.065000	2700.757324
-9.341423	-20.065000	2705.043945
-8.341423	-20.065000	2709.683105
-7.341423	-20.065000	2709.339111
-6.341423	-20.065000	2704.836182
-5.341423	-20.065000	2707.638184
-4.341423	-20.065000	2703.542725
-3.341423	-20.065000	2709.852783
-2.341423	-20.065000	2703.187500
-1.341423	-20.065000	2708.829834
-0.341423	-20.065000	2707.764893
0.658577	-20.065000	2710.650146
1.658577	-20.065000	2711.368164
2.658577	-20.065000	2711.401367
3.658577	-20.065000	2714.478760
4.658577	-20.065000	2715.238037
5.658577	-20.065000	2715.587158
6.658577	-20.065000	2723.284424
7.658577	-20.065000	2650.000000
8.658577	-20.065000	2713.787109
9.658577	-20.065000	2704.160400
10.658577	-20.065000	2712.808105
11.658577	-20.065000	2711.311523
12.658577	-20.065000	2703.735352
13.658577	-20.065000	2699.201904
14.658577	-20.065000	2698.517090
15.658577	-20.065000	2710.816162
16.658577	-20.065000	2709.330322
17.658577	-20.065000	2704.079346
18.658577	-20.065000	2700.604492
19.658577	-20.065000	2702.886963
20.658577	-20.065000	2701.493164
21.658577	-20.065000	2699.420654
22.658577	-20.065000	2650.000000
23.658577	-20.065000	2650.000000
24.658577	-20.065000	2688.402588
-39.341423	-19.065000	2709.102295
-38.341423	-19.065000	2709.051514
-37.341423	-19.065000	2711.864014
-36.341423	-19.065000	2711.795166
-35.341423	-19.065000	2708.264648
-34.341423	-19.065000	2709.772217
-33.341423	-19.065000	2705.645996
-32.341423	-19.065000	2704.767090
-31.341423	-19.065000	2703.419189
-30.341423	-19.065000	2703.511475
-29.341423	-19.065000	2702.036377
-28.341423	-19.065000	2701.437988
-27.341423	-19.065000	2702.410400
-26.341423	-19.065000	2704.615479
-25.341423	-19.065000	2701.654541
-24.341423	-19.065000	2698.878906
-23.341423	-19.065000	2699.347412
-22.341423	-19.065000	2702.231934
-21.341423	-19.065000	2704.817627
-20.341423	-19.065000	2702.448486
-19.341423	-19.065000	2700.539307
-18.341423	-19.065000	2704.149414
-17.341423	-19.065000	2698.634277
-16.341423	-19.065000	2699.327393
-15.341423	-19.065000	2700.239990
-14.341423	-19.065000	2694.598389
-13.341423	-19.065000	2697.385742
-12.341423	-19.065000	2701.549316
-11.341423	-19.065000	2705.066406
-10.341423	-19.065000	2702.395996
-9.341423	-19.065000	2707.622070
-8.341423	-19.065000	2709.384521
-7.341423	-19.065000	2703.200195
-6.341423	-19.065000	2705.513428
-5.341423	-19.065000	2704.138672
-4.341423	-19.065000	2701.852295
-3.341423	-19.065000	2694.476074
-2.341423	-19.065000	2702.893066
-1.341423	-19.065000	2709.536865
-0.341423	-19.065000	2706.906494
0.658577	-19.065000	2710.834961
1.658577	-19.065000	2713.459229
2.658577	-19.065000	2711.021484
3.658577	-19.065000	2708.961914
4.658577	-19.065000	2711.529297
5.658577	-19.065000	2717.569824
6.658577	-19.065000	2690.038574
7.658577	-19.065000	2700.743652
8.658577	-19.065000	2704.394043
9.658577	-19.065000	2704.851807
10.658577	-19.065000	2710.579102
11.658577	-19.065000	2704.191650
12.658577	-19.065000	2696.999756
13.658577	-19.065000	2698.846680
14.658577	-19.065000	2703.384033
15.658577	-19.065000	2705.253662
16.658577	-19.065000	2703.258057
17.658577	-19.065000	2708.828857
18.658577	-19.065000	2703.280518
19.658577	-19.065000	2702.786133
20.658577	-19.065000	2699.685547
21.658577	-19.065000	2698.690186
22.658577	-19.065000	2750.000000
23.658577	-19.065000	2698.506836
24.658577	-19.065000	2714.338867
-39.341423	-18.065000	2707.231934
-38.341423	-18.065000	2709.359375
-37.341423	-18.065000	2706.947266
-36.341423	-18.065000	2709.553955
-35.341423	-18.065000	2702.057861
-34.341423	-18.065000	2687.562744
-33.341423	-18.065000	2704.555176
-32.341423	-18.065000	2703.659424
-31.341423	-18.065000	2700.987305
-30.341423	-18.065000	2702.375488
-29.341423	-18.065000	2701.645508
-28.341423	-18.065000	2701.153809
-27.341423	-18.065000	2704.511475
-26.341423	-18.065000	2702.349609
-25.341423	-18.065000	2704.071777
-24.341423	-18.065000	2701.954834
-23.341423	-18.065000	2702.540039
-22.341423	-18.065000	2702.013428
-21.341423	-18.065000	2705.712158
-20.341423	-18.065000	2702.971436
-19.341423	-18.065000	2695.295898
-18.341423	-18.065000	2694.893555
-17.341423	-18.065000	2699.799316
-16.341423	-18.065000	2703.325439
-15.341423	-18.065000	2699.250732
-14.341423	-18.065000	2700.779785
-13.341423	-18.065000	2698.094971
-12.341423	-18.065000	2705.300049
-11.341423	-18.065000	2701.636719
-10.341423	-18.065000	2703.310547
-9.341423	-18.065000	2707.599609
-8.341423	-18.065000	2705.888184
-7.341423	-18.065000	2700.443848
-6.341423	-18.065000	2704.586914
-5.341423	-18.065000	2698.218018
-4.341423	-18.065000	2697.564453
-3.341423	-18.065000	2701.807129
-2.341423	-18.065000	2706.816162
-1.341423	-18.065000	2707.600586
-0.341423	-18.065000	2706.367432
0.658577	-18.065000	2712.380371
1.658577	-18.065000	2712.314453
2.658577	-18.065000	2709.246826
3.658577	-18.065000	2710.496582
4.658577	-18.065000	2699.696777
5.658577	-18.065000	2705.812988
6.658577	-18.065000	2696.661133
7.658577	-18.065000	2700.845459
8.658577	-18.065000	2692.749268
9.658577	-18.065000	2706.180664
10.658577	-18.065000	2703.084961
11.658577	-18.065000	2705.540039
12.658577	-18.065000	2702.054688
13.658577	-18.065000	2703.815674
14.658577	-18.065000	2707.458740
15.658577	-18.065000	2706.632324
16.658577	-18.065000	2701.258789
17.658577	-18.065000	2706.407715
18.658577	-18.065000	2708.899414
19.658577	-18.065000	2706.661621
20.658577	-18.065000	2708.230957
21.658577	-18.065000	2702.673096
22.658577	-18.065000	2698.915771
23.658577	-18.065000	2701.730713
24.658577	-18.065000	2701.355957
-39.341423	-17.065000	2709.760986
-38.341423	-17.065000	2704.896484
-37.341423	-17.065000	2699.572510
-36.341423	-17.065000	2703.602783
-35.341423	-17.065000	2698.429688
-34.341423	-17.065000	2678.040039
-33.341423	-17.065000	2706.337402
-32.341423	-17.065000	2699.659668
-31.341423	-17.065000	2700.864258
-30.341423	-17.065000	2698.524902
-29.341423	-17.065000	2703.138672
-28.341423	-17.065000	2701.885986
-27.341423	-17.065000	2701.660156
-26.341423	-17.065000	2702.145264
-25.341423	-17.065000	2702.272217
-24.341423	-17.065000	2701.313477
-23.341423	-17.065000	2701.930664
-22.341423	-17.065000	2700.251709
-21.341423	-17.065000	2700.128662
-20.341423	-17.065000	2703.486328
-19.341423	-17.065000	2696.169434
-18.341423	-17.065000	2699.334961
-17.341423	-17.065000	2703.005615
-16.341423	-17.065000	2702.495605
-15.341423	-17.065000	2698.397217
-14.341423	-17.065000	2698.931152
-13.341423	-17.065000	2701.760742
-12.341423	-17.065000	2695.399658
-11.341423	-17.065000	2700.573242
-10.341423	-17.065000	2705.355713
-9.341423	-17.065000	2706.688721
-8.341423	-17.065000	2703.480469
-7.341423	-17.065000	2712.909180
-6.341423	-17.065000	2701.520020
-5.341423	-17.065000	2699.500977
-4.341423	-17.065000	2701.307617
-3.341423	-17.065000	2706.417480
-2.341423	-17.065000	2708.657715
-1.341423	-17.065000	2703.558594
-0.341423	-17.065000	2711.748291
0.658577	-17.065000	2708.863037
1.658577	-17.065000	2707.473389
2.658577	-17.065000	2711.413818
3.658577	-17.065000	2712.525146
4.658577	-17.065000	2704.053711
5.658577	-17.065000	2706.615967
6.658577	-17.065000	2701.648926
7.658577	-17.065000	2702.971436
8.658577	-17.065000	2703.317139
9.658577	-17.065000	2705.438721
10.658577	-17.065000	2705.602051
11.658577	-17.065000	2704.189209
12.658577	-17.065000	2703.140381
13.658577	-17.065000	2698.186279
14.658577	-17.065000	2705.985352
15.658577	-17.065000	2701.907227
16.658577	-17.065000	2702.641113
17.658577	-17.065000	2713.845947
18.658577	-17.065000	2715.158936
19.658577	-17.065000	2713.621582
20.658577	-17.065000	2711.575928
21.658577	-17.065000	2698.159668
22.658577	-17.065000	2701.484863
23.658577	-17.065000	2704.331787
24.658577	-17.065000	2699.892578
-39.341423	-16.065000	2707.567871
-38.341423	-16.065000	2702.520020
-37.341423	-16.065000	2699.422852
-36.341423	-16.065000	2681.281738
-35.341423	-16.065000	2708.632080
-34.341423	-16.065000	2708.902100
-33.341423	-16.065000	2698.664551
-32.341423	-16.065000	2699.024902
-31.341423	-16.065000	2701.891846
-30.341423	-16.065000	2698.465576
-29.341423	-16.065000	2700.611572
-28.341423	-16.065000	2706.097656
-27.341423	-16.065000	2701.916260
-26.341423	-16.065000	2703.332275
-25.341423	-16.065000	2700.488770
-24.341423	-16.065000	2703.374268
-23.341423	-16.065000	2701.679688
-22.341423	-16.065000	2702.576904
-21.341423	-16.065000	2705.660400
-20.341423	-16.065000	2709.490967
-19.341423	-16.065000	2716.819092
-18.341423	-16.065000	2679.555420
-17.341423	-16.065000	2704.749512
-16.341423	-16.065000	2699.502930
-15.341423	-16.065000	2695.928223
-14.341423	-16.065000	2702.979980
-13.341423	-16.065000	2695.222412
-12.341423	-16.065000	2705.396484
-11.341423	-16.065000	2705.110840
-10.341423	-16.065000	2702.795410
-9.341423	-16.065000	2702.329102
-8.341423	-16.065000	2701.156006
-7.341423	-16.065000	2704.712891
-6.341423	-16.065000	2706.472900
-5.341423	-16.065000	2701.477295
-4.341423	-16.065000	2706.127930
-3.341423	-16.065000	2710.420166
-2.341423	-16.065000	2712.748535
-1.341423	-16.065000	2709.599854
-0.341423	-16.065000	2707.930420
0.658577	-16.065000	2706.900146
1.658577	-16.065000	2708.364990
2.658577	-16.065000	2719.300049
3.658577	-16.065000	2714.560547
4.658577	-16.065000	2714.440918
5.658577	-16.065000	2708.254639
6.658577	-16.065000	2705.227783
7.658577	-16.065000	2703.953857
8.658577	-16.065000	2703.520752
9.658577	-16.065000	2704.350830
10.658577	-16.065000	2703.656738
11.658577	-16.065000	2702.025635
12.658577	-16.065000	2703.531982
13.658577	-16.065000	2704.992188
14.658577	-16.065000	2704.960693
15.658577	-16.065000	2699.975830
16.658577	-16.065000	2697.822754
17.658577	-16.065000	2713.458740
18.658577	-16.065000	2718.332764
19.658577	-16.065000	2705.764893
20.658577	-16.065000	2703.992188
21.658577	-16.065000	2706.164795
22.658577	-16.065000	2700.395752
23.658577	-16.065000	2703.324707
24.658577	-16.065000	2698.592529
-39.341423	-15.065000	2709.767334
-38.341423	-15.065000	2706.883545
-37.341423	-15.065000	2700.733643
-36.341423	-15.065000	2698.413086
-35.341423	-15.065000	2694.012939
-34.341423	-15.065000	2702.118896
-33.341423	-15.065000	2695.350586
-32.341423	-15.065000	2694.864014
-31.341423	-15.065000	2700.621094
-30.341423	-15.065000	2699.185791
-29.341423	-15.065000	2701.116943
-28.341423	-15.065000	2704.578369
-27.341423	-15.065000	2702.861816
-26.341423	-15.065000	2701.727051
-25.341423	-15.065000	2701.544922
-24.341423	-15.065000	2702.643799
-23.341423	-15.065000	2702.335693
-22.341423	-15.065000	2701.772705
-21.341423	-15.065000	2701.950439
-20.341423	-15.065000	2708.215820
-19.341423	-15.065000	2651.595459
-18.341423	-15.065000	2700.865723
-17.341423	-15.065000	2698.924316
-16.341423	-15.065000	2703.016357
-15.341423	-15.065000	2701.742188
-14.341423	-15.065000	2700.620117
-13.341423	-15.065000	2706.666016
-12.341423	-15.065000	2703.877686
-11.341423	-15.065000	2701.510010
-10.341423	-15.065000	2702.340576
-9.341423	-15.065000	2704.000977
-8.341423	-15.065000	2705.108398
-7.341423	-15.065000	2703.108398
-6.341423	-15.065000	2704.135254
-5.341423	-15.065000	2705.783447
-4.341423	-15.065000	2709.821533
-3.341423	-15.065000	2711.128662
-2.341423	-15.065000	2714.286377
-1.341423	-15.065000	2710.717041
-0.341423	-15.065000	2704.643799
0.658577	-15.065000	2706.213135
1.658577	-15.065000	2706.874756
2.658577	-15.065000	2712.491211
3.658577	-15.065000	2712.571777
4.658577	-15.065000	2708.333252
5.658577	-15.065000	2699.036621
6.658577	-15.065000	2703.565918
7.658577	-15.065000	2705.663330
8.658577	-15.065000	2707.064209
9.658577	-15.065000	2703.354004
10.658577	-15.065000	2704.970459
11.658577	-15.065000	2702.004639
12.658577	-15.065000	2702.007568
13.658577	-15.065000	2709.682617
14.658577	-15.065000	2700.937500
15.658577	-15.065000	2702.544678
16.658577	-15.065000	2695.796143
17.658577	-15.065000	2706.648926
18.658577	-15.065000	2711.835938
19.658577	-15.065000	2708.444824
20.658577	-15.065000	2707.689941
21.658577	-15.065000	2704.283203
22.658577	-15.065000	2700.136230
23.658577	-15.065000	2700.689697
24.658577	-15.065000	2692.412109
-39.341423	-14.065000	2697.100586
-38.341423	-14.065000	2709.374512
-37.341423	-14.065000	2692.874756
-36.341423	-14.065000	2697.480469
-35.341423	-14.065000	2699.642090
-34.341423	-14.065000	2700.609619
-33.341423	-14.065000	2696.113770
-32.341423	-14.065000	2695.354004
-31.341423	-14.065000	2702.822754
-30.341423	-14.065000	2697.584473
-29.341423	-14.065000	2701.288330
-28.341423	-14.065000	2705.541016
-27.341423	-14.065000	2701.571289
-26.341423	-14.065000	2700.979004
-25.341423	-14.065000	2700.792480
-24.341423	-14.065000	2703.145752
-23.341423	-14.065000	2704.168701
-22.341423	-14.065000	2699.531250
-21.341423	-14.065000	2703.100586
-20.341423	-14.065000	2698.196289
-19.341423	-14.065000	2702.970703
-18.341423	-14.065000	2698.045166
-17.341423	-14.065000	2701.860596
-16.341423	-14.065000	2705.156006
-15.341423	-14.065000	2700.153320
-14.341423	-14.065000	2699.683594
-13.341423	-14.065000	2699.960205
-12.341423	-14.065000	2695.327881
-11.341423	-14.065000	2704.366455
-10.341423	-14.065000	2704.663330
-9.341423	-14.065000	2706.180908
-8.341423	-14.065000	2706.395264
-7.341423	-14.065000	2705.146729
-6.341423	-14.065000	2706.825684
-5.341423	-14.065000	2706.062256
-4.341423	-14.065000	2710.547852
-3.341423	-14.065000	2709.603760
-2.341423	-14.065000	2711.300293
-1.341423	-14.065000	2710.858154
-0.341423	-14.065000	2707.528564
0.658577	-14.065000	2707.646729
1.658577	-14.065000	2708.043457
2.658577	-14.065000	2711.316406
3.658577	-14.065000	2714.633057
4.658577	-14.065000	2710.338379
5.658577	-14.065000	2706.874023
6.658577	-14.065000	2705.227051
7.658577	-14.065000	2703.454834
8.658577	-14.065000	2705.310303
9.658577	-14.065000	2703.642090
10.658577	-14.065000	2698.328857
11.658577	-14.065000	2698.760498
12.658577	-14.065000	2711.019531
13.658577	-14.065000	2703.793945
14.658577	-14.065000	2706.944580
15.658577	-14.065000	2716.148193
16.658577	-14.065000	2721.350098
17.658577	-14.065000	2721.505859
18.658577	-14.065000	2705.922607
19.658577	-14.065000	2706.520264
20.658577	-14.065000	2707.704346
21.658577	-14.065000	2704.805420
22.658577	-14.065000	2708.358154
23.658577	-14.065000	2706.055664
24.658577	-14.065000	2707.422363
-39.341423	-13.065000	2702.903320
-38.341423	-13.065000	2699.360352
-37.341423	-13.065000	2699.817139
-36.341423	-13.065000	2695.993164
-35.341423	-13.065000	2691.511475
-34.341423	-13.065000	2698.887939
-33.341423	-13.065000	2695.777588
-32.341423	-13.065000	2702.448242
-31.341423	-13.065000	2700.257813
-30.341423	-13.065000	2701.049805
-29.341423	-13.065000	2703.692139
-28.341423	-13.065000	2703.315918
-27.341423	-13.065000	2699.780762
-26.341423	-13.065000	2700.022705
-25.341423	-13.065000	2701.247314
-24.341423	-13.065000	2702.130615
-23.341423	-13.065000	2702.023193
-22.341423	-13.065000	2700.931152
-21.341423	-13.065000	2704.536621
-20.341423	-13.065000	2708.849121
-19.341423	-13.065000	2708.814941
-18.341423	-13.065000	2713.187744
-17.341423	-13.065000	2717.622070
-16.341423	-13.065000	2713.765137
-15.341423	-13.065000	2705.414307
-14.341423	-13.065000	2704.822510
-13.341423	-13.065000	2694.774658
-12.341423	-13.065000	2708.176025
-11.341423	-13.065000	2704.052734
-10.341423	-13.065000	2704.630859
-9.341423	-13.065000	2707.198975
-8.341423	-13.065000	2709.042236
-7.341423	-13.065000	2705.789063
-6.341423	-13.065000	2707.625977
-5.341423	-13.065000	2706.430664
-4.341423	-13.065000	2709.291748
-3.341423	-13.065000	2708.331543
-2.341423	-13.065000	2710.381348
-1.341423	-13.065000	2709.705811
-0.341423	-13.065000	2707.819824
0.658577	-13.065000	2707.555176
1.658577	-13.065000	2706.006592
2.658577	-13.065000	2710.339844
3.658577	-13.065000	2712.915283
4.658577	-13.065000	2711.489990
5.658577	-13.065000	2709.084961
6.658577	-13.065000	2706.089600
7.658577	-13.065000	2700.615967
8.658577	-13.065000	2701.636719
9.658577	-13.065000	2699.272705
10.658577	-13.065000	2712.849609
11.658577	-13.065000	2696.799316
12.658577	-13.065000	2715.145508
13.658577	-13.065000	2709.072754
14.658577	-13.065000	2703.340088
15.658577	-13.065000	2699.215576
16.658577	-13.065000	2704.954102
17.658577	-13.065000	2698.513184
18.658577	-13.065000	2709.452148
19.658577	-13.065000	2708.186279
20.658577	-13.065000	2705.779053
21.658577	-13.065000	2709.818604
22.658577	-13.065000	2708.052490
23.658577	-13.065000	2710.202148
24.658577	-13.065000	2712.309082
-39.341423	-12.065000	2701.157715
-38.341423	-12.065000	2691.987793
-37.341423	-12.065000	2698.646973
-36.341423	-12.065000	2694.879639
-35.341423	-12.065000	2697.337158
-34.341423	-12.065000	2699.716064
-33.341423	-12.065000	2706.885254
-32.341423	-12.065000	2705.526855
-31.341423	-12.065000	2701.247314
-30.341423	-12.065000	2704.208740
-29.341423	-12.065000	2700.258545
-28.341423	-12.065000	2698.836914
-27.341423	-12.065000	2699.032959
-26.341423	-12.065000	2702.367920
-25.341423	-12.065000	2697.820313
-24.341423	-12.065000	2701.487549
-23.341423	-12.065000	2699.465332
-22.341423	-12.065000	2701.751465
-21.341423	-12.065000	2713.734375
-20.341423	-12.065000	2715.849609
-19.341423	-12.065000	2714.060059
-18.341423	-12.065000	2712.038574
-17.341423	-12.065000	2711.764404
-16.341423	-12.065000	2713.434570
-15.341423	-12.065000	2706.319092
-14.341423	-12.065000	2708.947998
-13.341423	-12.065000	2708.437256
-12.341423	-12.065000	2704.639160
-11.341423	-12.065000	2706.087158
-10.341423	-12.065000	2707.004883
-9.341423	-12.065000	2706.010742
-8.341423	-12.065000	2708.793457
-7.341423	-12.065000	2705.828125
-6.341423	-12.065000	2704.784424
-5.341423	-12.065000	2706.452148
-4.341423	-12.065000	2708.831055
-3.341423	-12.065000	2705.937012
-2.341423	-12.065000	2707.609375
-1.341423	-12.065000	2707.086426
-0.341423	-12.065000	2705.701172
0.658577	-12.065000	2706.281494
1.658577	-12.065000	2711.553955
2.658577	-12.065000	2711.587646
3.658577	-12.065000	2714.795654
4.658577	-12.065000	2713.789795
5.658577	-12.065000	2713.709229
6.658577	-12.065000	2707.364746
7.658577	-12.065000	2703.900635
8.658577	-12.065000	2700.654541
9.658577	-12.065000	2691.947266
10.658577	-12.065000	2673.484863
11.658577	-12.065000	2693.774414
12.658577	-12.065000	2706.274170
13.658577	-12.065000	2715.762695
14.658577	-12.065000	2704.874023
15.658577	-12.065000	2697.061523
16.658577	-12.065000	2699.615723
17.658577	-12.065000	2705.029541
18.658577	-12.065000	2705.601563
19.658577	-12.065000	2710.209473
20.658577	-12.065000	2714.322754
21.658577	-12.065000	2710.895752
22.658577	-12.065000	2711.383057
23.658577	-12.065000	2709.579102
24.658577	-12.065000	2707.389404
-39.341423	-11.065000	2693.799805
-38.341423	-11.065000	2693.989990
-37.341423	-11.065000	2702.186035
-36.341423	-11.065000	2700.063721
-35.341423	-11.065000	2699.906982
-34.341423	-11.065000	2703.138428
-33.341423	-11.065000	2701.101807
-32.341423	-11.065000	2703.250244
-31.341423	-11.065000	2702.658447
-30.341423	-11.065000	2694.176270
-29.341423	-11.065000	2703.500977
-28.341423	-11.065000	2695.761230
-27.341423	-11.065000	2700.910156
-26.341423	-11.065000	2704.644287
-25.341423	-11.065000	2699.366455
-24.341423	-11.065000	2698.862549
-23.341423	-11.065000	2700.759766
-22.341423	-11.065000	2699.805176
-21.341423	-11.065000	2711.037598
-20.341423	-11.065000	2712.308594
-19.341423	-11.065000	2708.964111
-18.341423	-11.065000	2708.969482
-17.341423	-11.065000	2710.164795
-16.341423	-11.065000	2710.489258
-15.341423	-11.065000	2708.830078
-14.341423	-11.065000	2706.606934
-13.341423	-11.065000	2711.957031
-12.341423	-11.065000	2701.657227
-11.341423	-11.065000	2703.113037
-10.341423	-11.065000	2705.115234
-9.341423	-11.065000	2706.741211
-8.341423	-11.065000	2711.710693
-7.341423	-11.065000	2708.842041
-6.341423	-11.065000	2707.554688
-5.341423	-11.065000	2709.812012
-4.341423	-11.065000	2706.795898
-3.341423	-11.065000	2710.246338
-2.341423	-11.065000	2710.288330
-1.341423	-11.065000	2707.872559
-0.341423	-11.065000	2708.859863
0.658577	-11.065000	2712.318848
1.658577	-11.065000	2709.310303
2.658577	-11.065000	2708.110352
3.658577	-11.065000	2714.472412
4.658577	-11.065000	2715.927002
5.658577	-11.065000	2709.450928
6.658577	-11.065000	2713.104736
7.658577	-11.065000	2706.302734
8.658577	-11.065000	2704.629395
9.658577	-11.065000	2729.159180
10.658577	-11.065000	2651.769531
11.658577	-11.065000	2661.954590
12.658577	-11.065000	2704.284668
13.658577	-11.065000	2705.120361
14.658577	-11.065000	2700.148438
15.658577	-11.065000	2699.214600
16.658577	-11.065000	2703.000000
17.658577	-11.065000	2710.267578
18.658577	-11.065000	2713.395508
19.658577	-11.065000	2713.287354
20.658577	-11.065000	2714.969971
21.658577	-11.065000	2717.827637
22.658577	-11.065000	2716.319336
23.658577	-11.065000	2710.568359
24.658577	-11.065000	2704.995850
-39.341423	-10.065000	2694.092041
-38.341423	-10.065000	2701.888672
-37.341423	-10.065000	2694.532471
-36.341423	-10.065000	2701.783691
-35.341423	-10.065000	2694.519043
-34.341423	-10.065000	2700.820557
-33.341423	-10.065000	2698.010010
-32.341423	-10.065000	2693.040039
-31.341423	-10.065000	2699.849609
-30.341423	-10.065000	2696.265381
-29.341423	-10.065000	2694.587891
-28.341423	-10.065000	2694.197754
-27.341423	-10.065000	2695.240479
-26.341423	-10.065000	2703.309814
-25.341423	-10.065000	2704.253418
-24.341423	-10.065000	2701.508545
-23.341423	-10.065000	2701.560791
-22.341423	-10.065000	2698.089600
-21.341423	-10.065000	2704.312744
-20.341423	-10.065000	2701.402344
-19.341423	-10.065000	2708.493896
-18.341423	-10.065000	2708.743164
-17.341423	-10.065000	2708.040771
-16.341423	-10.065000	2708.237061
-15.341423	-10.065000	2705.163574
-14.341423	-10.065000	2703.166260
-13.341423	-10.065000	2703.664551
-12.341423	-10.065000	2703.658936
-11.341423	-10.065000	2706.933594
-10.341423	-10.065000	2704.208252
-9.341423	-10.065000	2698.473145
-8.341423	-10.065000	2712.466064
-7.341423	-10.065000	2710.916260
-6.341423	-10.065000	2712.767822
-5.341423	-10.065000	2714.606201
-4.341423	-10.065000	2714.965820
-3.341423	-10.065000	2711.312012
-2.341423	-10.065000	2712.439453
-1.341423	-10.065000	2712.077881
-0.341423	-10.065000	2707.724365
0.658577	-10.065000	2706.781006
1.658577	-10.065000	2706.206055
2.658577	-10.065000	2710.817871
3.658577	-10.065000	2718.055420
4.658577	-10.065000	2713.586426
5.658577	-10.065000	2710.577393
6.658577	-10.065000	2697.656982
7.658577	-10.065000	2699.217285
8.658577	-10.065000	2717.073242
9.658577	-10.065000	2650.000000
10.658577	-10.065000	2650.000000
11.658577	-10.065000	2650.000000
12.658577	-10.065000	2705.340820
13.658577	-10.065000	2711.022949
14.658577	-10.065000	2713.908203
15.658577	-10.065000	2705.300781
16.658577	-10.065000	2705.201416
17.658577	-10.065000	2713.080078
18.658577	-10.065000	2716.581055
19.658577	-10.065000	2715.719482
20.658577	-10.065000	2717.244873
21.658577	-10.065000	2716.995605
22.658577	-10.065000	2718.112549
23.658577	-10.065000	2712.031250
24.658577	-10.065000	2700.794189
-39.341423	-9.065000	2694.157227
-38.341423	-9.065000	2701.170654
-37.341423	-9.065000	2701.596924
-36.341423	-9.065000	2700.699951
-35.341423	-9.065000	2699.154785
-34.341423	-9.065000	2693.532715
-33.341423	-9.065000	2693.318115
-32.341423	-9.065000	2698.905518
-31.341423	-9.065000	2699.682373
-30.341423	-9.065000	2700.802734
-29.341423	-9.065000	2702.214600
-28.341423	-9.065000	2702.798096
-27.341423	-9.065000	2701.491699
-26.341423	-9.065000	2705.770752
-25.341423	-9.065000	2706.141113
-24.341423	-9.065000	2701.838379
-23.341423	-9.065000	2717.301758
-22.341423	-9.065000	2687.049805
-21.341423	-9.065000	2705.516113
-20.341423	-9.065000	2706.910645
-19.341423	-9.065000	2706.342529
-18.341423	-9.065000	2706.357666
-17.341423	-9.065000	2704.086426
-16.341423	-9.065000	2704.121338
-15.341423	-9.065000	2703.693848
-14.341423	-9.065000	2706.303955
-13.341423	-9.065000	2707.365967
-12.341423	-9.065000	2709.820557
-11.341423	-9.065000	2701.629150
-10.341423	-9.065000	2695.776855
-9.341423	-9.065000	2700.965332
-8.341423	-9.065000	2698.570313
-7.341423	-9.065000	2711.149658
-6.341423	-9.065000	2714.359863
-5.341423	-9.065000	2716.630615
-4.341423	-9.065000	2715.002197
-3.341423	-9.065000	2716.051025
-2.341423	-9.065000	2714.318115
-1.341423	-9.065000	2709.314941
-0.341423	-9.065000	2705.255127
0.658577	-9.065000	2703.145996
1.658577	-9.065000	2708.868896
2.658577	-9.065000	2714.227051
3.658577	-9.065000	2714.906494
4.658577	-9.065000	2713.244629
5.658577	-9.065000	2696.845215
6.658577	-9.065000	2698.822998
7.658577	-9.065000	2696.094482
8.658577	-9.065000	2699.636475
9.658577	-9.065000	2650.000000
10.658577	-9.065000	2665.205078
11.658577	-9.065000	2750.000000
12.658577	-9.065000	2705.901367
13.658577	-9.065000	2710.956787
14.658577	-9.065000	2711.782715
15.658577	-9.065000	2710.384521
16.658577	-9.065000	2713.098633
17.658577	-9.065000	2712.658691
18.658577	-9.065000	2717.457520
19.658577	-9.065000	2717.989502
20.658577	-9.065000	2719.170166
21.658577	-9.065000	2718.706787
22.658577	-9.065000	2715.442139
23.658577	-9.065000	2713.504639
24.658577	-9.065000	2702.651855
-39.341423	-8.065000	2702.451172
-38.341423	-8.065000	2703.573730
-37.341423	-8.065000	2703.066650
-36.341423	-8.065000	2694.577881
-35.341423	-8.065000	2693.732178
-34.341423	-8.065000	2700.994141
-33.341423	-8.065000	2693.817139
-32.341423	-8.065000	2692.503906
-31.341423	-8.065000	2701.453613
-30.341423	-8.065000	2703.327393
-29.341423	-8.065000	2702.033691
-28.341423	-8.065000	2702.791016
-27.341423	-8.065000	2692.476318
-26.341423	-8.065000	2705.025146
-25.341423	-8.065000	2703.574707
-24.341423	-8.065000	2710.659668
-23.341423	-8.065000	2711.603271
-22.341423	-8.065000	2718.480957
-21.341423	-8.065000	2712.693359
-20.341423	-8.065000	2713.310303
-19.341423	-8.065000	2708.780029
-18.341423	-8.065000	2704.711426
-17.341423	-8.065000	2703.836182
-16.341423	-8.065000	2702.486084
-15.341423	-8.065000	2707.879883
-14.341423	-8.065000	2705.115967
-13.341423	-8.065000	2703.017334
-12.341423	-8.065000	2707.022217
-11.341423	-8.065000	2703.088867
-10.341423	-8.065000	2696.806641
-9.341423	-8.065000	2705.714600
-8.341423	-8.065000	2690.408203
-7.341423	-8.065000	2713.379883
-6.341423	-8.065000	2716.210449
-5.341423	-8.065000	2711.190674
-4.341423	-8.065000	2711.963623
-3.341423	-8.065000	2710.601807
-2.341423	-8.065000	2715.397461
-1.341423	-8.065000	2710.550049
-0.341423	-8.065000	2707.785645
0.658577	-8.065000	2703.021729
1.658577	-8.065000	2697.353516
2.658577	-8.065000	2713.880371
3.658577	-8.065000	2700.458496
4.658577	-8.065000	2706.213379
5.658577	-8.065000	2698.436279
6.658577	-8.065000	2696.586426
7.658577	-8.065000	2696.459961
8.658577	-8.065000	2681.939941
9.658577	-8.065000	2650.000000
10.658577	-8.065000	2748.227051
11.658577	-8.065000	2687.099854
12.658577	-8.065000	2717.450439
13.658577	-8.065000	2712.268555
14.658577	-8.065000	2711.394043
15.658577	-8.065000	2707.592773
16.658577	-8.065000	2708.777588
17.658577	-8.065000	2709.583008
18.658577	-8.065000	2715.099609
19.658577	-8.065000	2719.028076
20.658577	-8.065000	2717.343018
21.658577	-8.065000	2719.664307
22.658577	-8.065000	2719.226807
23.658577	-8.065000	2707.571777
24.658577	-8.065000	2711.476563
-39.341423	-7.065000	2701.976563
-38.341423	-7.065000	2699.349854
-37.341423	-7.065000	2698.948975
-36.341423	-7.065000	2700.976807
-35.341423	-7.065000	2700.994385
-34.341423	-7.065000	2697.998291
-33.341423	-7.065000	2699.743164
-32.341423	-7.065000	2699.649658
-31.341423	-7.065000	2703.732910
-30.341423	-7.065000	2702.131348
-29.341423	-7.065000	2704.138428
-28.341423	-7.065000	2705.660645
-27.341423	-7.065000	2700.663818
-26.341423	-7.065000	2704.977051
-25.341423	-7.065000	2700.242920
-24.341423	-7.065000	2713.496338
-23.341423	-7.065000	2711.513916
-22.341423	-7.065000	2707.987061
-21.341423	-7.065000	2715.840088
-20.341423	-7.065000	2710.662842
-19.341423	-7.065000	2702.185059
-18.341423	-7.065000	2706.128906
-17.341423	-7.065000	2703.167725
-16.341423	-7.065000	2705.080078
-15.341423	-7.065000	2707.778564
-14.341423	-7.065000	2703.412842
-13.341423	-7.065000	2703.024170
-12.341423	-7.065000	2704.179688
-11.341423	-7.065000	2704.845703
-10.341423	-7.065000	2698.966309
-9.341423	-7.065000	2704.514893
-8.341423	-7.065000	2702.830322
-7.341423	-7.065000	2724.743896
-6.341423	-7.065000	2717.033203
-5.341423	-7.065000	2714.064941
-4.341423	-7.065000	2706.626953
-3.341423	-7.065000	2704.014404
-2.341423	-7.065000	2700.202637
-1.341423	-7.065000	2692.187012
-0.341423	-7.065000	2707.291016
0.658577	-7.065000	2679.095215
1.658577	-7.065000	2685.806152
2.658577	-7.065000	2704.268799
3.658577	-7.065000	2705.467529
4.658577	-7.065000	2702.165283
5.658577	-7.065000	2698.349609
6.658577	-7.065000	2696.176514
7.658577	-7.065000	2700.738770
8.658577	-7.065000	2652.804199
9.658577	-7.065000	2650.000000
10.658577	-7.065000	2703.203857
11.658577	-7.065000	2717.362549
12.658577	-7.065000	2700.718018
13.658577	-7.065000	2698.403076
14.658577	-7.065000	2702.002197
15.658577	-7.065000	2704.479004
16.658577	-7.065000	2710.756836
17.658577	-7.065000	2710.395508
18.658577	-7.065000	2710.116943
19.658577	-7.065000	2714.196777
20.658577	-7.065000	2715.071045
21.658577	-7.065000	2711.133545
22.658577	-7.065000	2710.368652
23.658577	-7.065000	2708.047363
24.658577	-7.065000	2704.508789
-39.341423	-6.065000	2700.596436
-38.341423	-6.065000	2701.391602
-37.341423	-6.065000	2694.835938
-36.341423	-6.065000	2702.101563
-35.341423	-6.065000	2702.365723
-34.341423	-6.065000	2703.739014
-33.341423	-6.065000	2700.443604
-32.341423	-6.065000	2699.445313
-31.341423	-6.065000	2700.723389
-30.341423	-6.065000	2703.051514
-29.341423	-6.065000	2704.207520
-28.341423	-6.065000	2700.970947
-27.341423	-6.065000	2702.893555
-26.341423	-6.065000	2703.572510
-25.341423	-6.065000	2693.074219
-24.341423	-6.065000	2693.326904
-23.341423	-6.065000	2710.574463
-22.341423	-6.065000	2703.186768
-21.341423	-6.065000	2701.754150
-20.341423	-6.065000	2703.744141
-19.341423	-6.065000	2725.732910
-18.341423	-6.065000	2750.000000
-17.341423	-6.065000	2701.452148
-16.341423	-6.065000	2704.920898
-15.341423	-6.065000	2704.043213
-14.341423	-6.065000	2701.268799
-13.341423	-6.065000	2703.109131
-12.341423	-6.065000	2697.513916
-11.341423	-6.065000	2696.462891
-10.341423	-6.065000	2702.994141
-9.341423	-6.065000	2705.777832
-8.341423	-6.065000	2701.780518
-7.341423	-6.065000	2699.658936
-6.341423	-6.065000	2701.391846
-5.341423	-6.065000	2715.729248
-4.341423	-6.065000	2650.000000
-3.341423	-6.065000	2698.152344
-2.341423	-6.065000	2702.650635
-1.341423	-6.065000	2693.266113
-0.341423	-6.065000	2706.897461
0.658577	-6.065000	2703.650146
1.658577	-6.065000	2750.000000
2.658577	-6.065000	2704.510254
3.658577	-6.065000	2699.618164
4.658577	-6.065000	2698.312500
5.658577	-6.065000	2698.377686
6.658577	-6.065000	2702.365967
7.658577	-6.065000	2699.684326
8.658577	-6.065000	2695.495850
9.658577	-6.065000	2713.162109
10.658577	-6.065000	2710.280762
11.658577	-6.065000	2705.333008
12.658577	-6.065000	2703.442627
13.658577	-6.065000	2702.949463
14.658577	-6.065000	2706.598389
15.658577	-6.065000	2707.901611
16.658577	-6.065000	2707.587891
17.658577	-6.065000	2711.421143
18.658577	-6.065000	2713.777832
19.658577	-6.065000	2715.664551
20.658577	-6.065000	2716.678467
21.658577	-6.065000	2712.343750
22.658577	-6.065000	2710.121338
23.658577	-6.065000	2705.390381
24.658577	-6.065000	2706.351563
-39.341423	-5.065000	2704.718994
-38.341423	-5.065000	2706.612305
-37.341423	-5.065000	2698.365967
-36.341423	-5.065000	2703.899902
-35.341423	-5.065000	2704.419678
-34.341423	-5.065000	2690.971680
-33.341423	-5.065000	2696.838379
-32.341423	-5.065000	2700.711670
-31.341423	-5.065000	2696.878418
-30.341423	-5.065000	2695.874268
-29.341423	-5.065000	2698.728027
-28.341423	-5.065000	2702.002197
-27.341423	-5.065000	2702.787354
-26.341423	-5.065000	2702.746338
-25.341423	-5.065000	2704.898193
-24.341423	-5.065000	2701.175537
-23.341423	-5.065000	2696.798584
-22.341423	-5.065000	2698.958252
-21.341423	-5.065000	2702.793701
-20.341423	-5.065000	2716.657715
-19.341423	-5.065000	2750.000000
-18.341423	-5.065000	2736.846436
-17.341423	-5.065000	2698.470215
-16.341423	-5.065000	2698.625488
-15.341423	-5.065000	2704.314697
-14.341423	-5.065000	2706.260254
-13.341423	-5.065000	2705.711182
-12.341423	-5.065000	2702.981934
-11.341423	-5.065000	2692.898926
-10.341423	-5.065000	2706.230469
-9.341423	-5.065000	2701.789551
-8.341423	-5.065000	2707.915039
-7.341423	-5.065000	2704.496826
-6.341423	-5.065000	2705.338135
-5.341423	-5.065000	2700.757080
-4.341423	-5.065000	2650.000000
-3.341423	-5.065000	2650.000000
-2.341423	-5.065000	2703.575195
-1.341423	-5.065000	2709.782227
-0.341423	-5.065000	2689.524414
0.658577	-5.065000	2701.743896
1.658577	-5.065000	2700.278320
2.658577	-5.065000	2703.758545
3.658577	-5.065000	2696.168945
4.658577	-5.065000	2697.072754
5.658577	-5.065000	2699.856934
6.658577	-5.065000	2706.395996
7.658577	-5.065000	2706.677002
8.658577	-5.065000	2707.786133
9.658577	-5.065000	2711.066406
10.658577	-5.065000	2704.593750
11.658577	-5.065000	2710.492432
12.658577	-5.065000	2701.523926
13.658577	-5.065000	2701.883545
14.658577	-5.065000	2704.246094
15.658577	-5.065000	2702.607178
16.658577	-5.065000	2702.605469
17.658577	-5.065000	2700.919189
18.658577	-5.065000	2712.409424
19.658577	-5.065000	2713.294922
20.658577	-5.065000	2712.812500
21.658577	-5.065000	2714.525146
22.658577	-5.065000	2705.151123
23.658577	-5.065000	2710.757568
24.658577	-5.065000	2710.007568
-39.341423	-4.065000	2695.521729
-38.341423	-4.065000	2709.458008
-37.341423	-4.065000	2704.981445
-36.341423	-4.065000	2705.445313
-35.341423	-4.065000	2705.872070
-34.341423	-4.065000	2697.999512
-33.341423	-4.065000	2696.565674
-32.341423	-4.065000	2689.615967
-31.341423	-4.065000	2698.981934
-30.341423	-4.065000	2701.505859
-29.341423	-4.065000	2704.697998
-28.341423	-4.065000	2699.630127
-27.341423	-4.065000	2705.023926
-26.341423	-4.065000	2703.367676
-25.341423	-4.065000	2704.117432
-24.341423	-4.065000	2702.056885
-23.341423	-4.065000	2695.792969
-22.341423	-4.065000	2703.771240
-21.341423	-4.065000	2700.513184
-20.341423	-4.065000	2703.334717
-19.341423	-4.065000	2698.410400
-18.341423	-4.065000	2706.981445
-17.341423	-4.065000	2696.694092
-16.341423	-4.065000	2698.933594
-15.341423	-4.065000	2702.032227
-14.341423	-4.065000	2703.637207
-13.341423	-4.065000	2694.416992
-12.341423	-4.065000	2706.198242
-11.341423	-4.065000	2707.383301
-10.341423	-4.065000	2707.348633
-9.341423	-4.065000	2708.106445
-8.341423	-4.065000	2704.266357
-7.341423	-4.065000	2706.455811
-6.341423	-4.065000	2711.090332
-5.341423	-4.065000	2708.226563
-4.341423	-4.065000	2712.476807
-3.341423	-4.065000	2650.000000
-2.341423	-4.065000	2691.248291
-1.341423	-4.065000	2723.265625
-0.341423	-4.065000	2702.064941
0.658577	-4.065000	2701.048584
1.658577	-4.065000	2703.975098
2.658577	-4.065000	2750.000000
3.658577	-4.065000	2737.332275
4.658577	-4.065000	2701.078613
5.658577	-4.065000	2704.129395
6.658577	-4.065000	2698.157471
7.658577	-4.065000	2697.553711
8.658577	-4.065000	2704.682129
9.658577	-4.065000	2699.513184
10.658577	-4.065000	2698.286133
11.658577	-4.065000	2708.397461
12.658577	-4.065000	2702.576172
13.658577	-4.065000	2697.927490
14.658577	-4.065000	2696.766357
15.658577	-4.065000	2704.711914
16.658577	-4.065000	2699.305908
17.658577	-4.065000	2700.801270
18.658577	-4.065000	2704.958008
19.658577	-4.065000	2705.392334
20.658577	-4.065000	2707.663818
21.658577	-4.065000	2703.205811
22.658577	-4.065000	2705.871826
23.658577	-4.065000	2707.278076
24.658577	-4.065000	2710.579346
-39.341423	-3.065000	2650.000000
-38.341423	-3.065000	2713.843262
-37.341423	-3.065000	2707.077881
-36.341423	-3.065000	2709.593506
-35.341423	-3.065000	2708.751465
-34.341423	-3.065000	2702.672363
-33.341423	-3.065000	2699.887451
-32.341423	-3.065000	2706.027588
-31.341423	-3.065000	2701.909668
-30.341423	-3.065000	2692.783447
-29.341423	-3.065000	2690.641846
-28.341423	-3.065000	2675.546631
-27.341423	-3.065000	2705.015869
-26.341423	-3.065000	2707.457031
-25.341423	-3.065000	2709.727051
-24.341423	-3.065000	2700.729492
-23.341423	-3.065000	2703.344238
-22.341423	-3.065000	2700.116699
-21.341423	-3.065000	2698.839111
-20.341423	-3.065000	2700.355713
-19.341423	-3.065000	2704.896484
-18.341423	-3.065000	2703.129883
-17.341423	-3.065000	2700.292480
-16.341423	-3.065000	2715.553223
-15.341423	-3.065000	2708.719482
-14.341423	-3.065000	2705.445557
-13.341423	-3.065000	2702.647217
-12.341423	-3.065000	2706.877441
-11.341423	-3.065000	2710.277344
-10.341423	-3.065000	2705.695313
-9.341423	-3.065000	2708.252686
-8.341423	-3.065000	2708.722656
-7.341423	-3.065000	2715.926270
-6.341423	-3.065000	2714.210693
-5.341423	-3.065000	2708.792725
-4.341423	-3.065000	2717.010742
-3.341423	-3.065000	2702.908447
-2.341423	-3.065000	2700.313232
-1.341423	-3.065000	2695.220215
-0.341423	-3.065000	2690.023438
0.658577	-3.065000	2697.226563
1.658577	-3.065000	2699.853760
2.658577	-3.065000	2750.000000
3.658577	-3.065000	2699.693359
4.658577	-3.065000	2710.866699
5.658577	-3.065000	2711.998047
6.658577	-3.065000	2705.476074
7.658577	-3.065000	2698.183838
8.658577	-3.065000	2701.751709
9.658577	-3.065000	2701.730469
10.658577	-3.065000	2706.572021
11.658577	-3.065000	2710.668213
12.658577	-3.065000	2694.647705
13.658577	-3.065000	2696.097900
14.658577	-3.065000	2696.954590
15.658577	-3.065000	2706.336426
16.658577	-3.065000	2701.222168
17.658577	-3.065000	2700.813721
18.658577	-3.065000	2702.964355
19.658577	-3.065000	2712.404785
20.658577	-3.065000	2709.314453
21.658577	-3.065000	2703.176025
22.658577	-3.065000	2713.613281
23.658577	-3.065000	2710.853760
24.658577	-3.065000	2710.458984
-39.341423	-2.065000	2747.704590
-38.341423	-2.065000	2699.773193
-37.341423	-2.065000	2704.384033
-36.341423	-2.065000	2705.294922
-35.341423	-2.065000	2703.621338
-34.341423	-2.065000	2704.818115
-33.341423	-2.065000	2710.360596
-32.341423	-2.065000	2705.261475
-31.341423	-2.065000	2702.515381
-30.341423	-2.065000	2699.230713
-29.341423	-2.065000	2703.403076
-28.341423	-2.065000	2650.000000
-27.341423	-2.065000	2694.722900
-26.341423	-2.065000	2700.503906
-25.341423	-2.065000	2697.755127
-24.341423	-2.065000	2702.764404
-23.341423	-2.065000	2699.682129
-22.341423	-2.065000	2701.448486
-21.341423	-2.065000	2694.972412
-20.341423	-2.065000	2704.027588
-19.341423	-2.065000	2705.474365
-18.341423	-2.065000	2714.100586
-17.341423	-2.065000	2708.052734
-16.341423	-2.065000	2709.921387
-15.341423	-2.065000	2700.704590
-14.341423	-2.065000	2706.244385
-13.341423	-2.065000	2705.276123
-12.341423	-2.065000	2706.181885
-11.341423	-2.065000	2708.662598
-10.341423	-2.065000	2705.786865
-9.341423	-2.065000	2709.545166
-8.341423	-2.065000	2710.376221
-7.341423	-2.065000	2710.998535
-6.341423	-2.065000	2710.700195
-5.341423	-2.065000	2709.839844
-4.341423	-2.065000	2715.217041
-3.341423	-2.065000	2714.164307
-2.341423	-2.065000	2701.880859
-1.341423	-2.065000	2704.003418
-0.341423	-2.065000	2692.583252
0.658577	-2.065000	2697.207764
1.658577	-2.065000	2695.023682
2.658577	-2.065000	2711.604980
3.658577	-2.065000	2695.804688
4.658577	-2.065000	2704.939453
5.658577	-2.065000	2705.619873
6.658577	-2.065000	2699.850586
7.658577	-2.065000	2703.258545
8.658577	-2.065000	2701.428223
9.658577	-2.065000	2704.666504
10.658577	-2.065000	2704.567871
11.658577	-2.065000	2706.132324
12.658577	-2.065000	2705.655762
13.658577	-2.065000	2697.559814
14.658577	-2.065000	2688.119385
15.658577	-2.065000	2701.851318
16.658577	-2.065000	2703.697510
17.658577	-2.065000	2703.849609
18.658577	-2.065000	2703.327881
19.658577	-2.065000	2706.024170
20.658577	-2.065000	2708.290771
21.658577	-2.065000	2696.213135
22.658577	-2.065000	2711.641357
23.658577	-2.065000	2712.565186
24.658577	-2.065000	2712.128662
-39.341423	-1.065000	2720.176270
-38.341423	-1.065000	2718.770752
-37.341423	-1.065000	2708.900391
-36.341423	-1.065000	2714.094727
-35.341423	-1.065000	2712.572266
-34.341423	-1.065000	2719.729248
-33.341423	-1.065000	2713.093994
-32.341423	-1.065000	2710.095459
-31.341423	-1.065000	2706.887939
-30.341423	-1.065000	2707.918945
-29.341423	-1.065000	2712.495605
-28.341423	-1.065000	2750.000000
-27.341423	-1.065000	2716.099365
-26.341423	-1.065000	2707.366455
-25.341423	-1.065000	2709.285645
-24.341423	-1.065000	2705.447998
-23.341423	-1.065000	2695.900879
-22.341423	-1.065000	2695.970215
-21.341423	-1.065000	2699.524902
-20.341423	-1.065000	2700.598633
-19.341423	-1.065000	2697.279785
-18.341423	-1.065000	2705.405029
-17.341423	-1.065000	2710.311768
-16.341423	-1.065000	2713.108643
-15.341423	-1.065000	2706.575928
-14.341423	-1.065000	2703.951172
-13.341423	-1.065000	2704.553711
-12.341423	-1.065000	2705.051758
-11.341423	-1.065000	2707.040283
-10.341423	-1.065000	2708.908447
-9.341423	-1.065000	2710.512451
-8.341423	-1.065000	2711.770752
-7.341423	-1.065000	2708.538330
-6.341423	-1.065000	2706.565918
-5.341423	-1.065000	2704.907715
-4.341423	-1.065000	2714.708252
-3.341423	-1.065000	2716.356689
-2.341423	-1.065000	2698.242920
-1.341423	-1.065000	2694.155762
-0.341423	-1.065000	2691.974121
0.658577	-1.065000	2700.656982
1.658577	-1.065000	2698.273438
2.658577	-1.065000	2700.374512
3.658577	-1.065000	2704.443115
4.658577	-1.065000	2710.146240
5.658577	-1.065000	2705.073242
6.658577	-1.065000	2706.058594
7.658577	-1.065000	2701.876709
8.658577	-1.065000	2706.152100
9.658577	-1.065000	2699.814941
10.658577	-1.065000	2702.960693
11.658577	-1.065000	2702.794434
12.658577	-1.065000	2704.416748
13.658577	-1.065000	2705.965088
14.658577	-1.065000	2699.350586
15.658577	-1.065000	2700.990967
16.658577	-1.065000	2703.645752
17.658577	-1.065000	2704.487793
18.658577	-1.065000	2708.365234
19.658577	-1.065000	2704.593018
20.658577	-1.065000	2701.943115
21.658577	-1.065000	2698.626953
22.658577	-1.065000	2710.689941
23.658577	-1.065000	2711.866699
24.658577	-1.065000	2714.279297
-39.341423	-0.065000	2720.297852
-38.341423	-0.065000	2718.842041
-37.341423	-0.065000	2718.468018
-36.341423	-0.065000	2721.099854
-35.341423	-0.065000	2724.088867
-34.341423	-0.065000	2717.453613
-33.341423	-0.065000	2712.703857
-32.341423	-0.065000	2715.447754
-31.341423	-0.065000	2714.495117
-30.341423	-0.065000	2718.626953
-29.341423	-0.065000	2714.470459
-28.341423	-0.065000	2750.000000
-27.341423	-0.065000	2750.000000
-26.341423	-0.065000	2701.973389
-25.341423	-0.065000	2706.279785
-24.341423	-0.065000	2704.202393
-23.341423	-0.065000	2703.177246
-22.341423	-0.065000	2701.719482
-21.341423	-0.065000	2702.020508
-20.341423	-0.065000	2704.101807
-19.341423	-0.065000	2700.381836
-18.341423	-0.065000	2706.995361
-17.341423	-0.065000	2712.768311
-16.341423	-0.065000	2709.752441
-15.341423	-0.065000	2705.500732
-14.341423	-0.065000	2705.296631
-13.341423	-0.065000	2704.441895
-12.341423	-0.065000	2706.869385
-11.341423	-0.065000	2703.447754
-10.341423	-0.065000	2710.148682
-9.341423	-0.065000	2712.433105
-8.341423	-0.065000	2712.156494
-7.341423	-0.065000	2708.208008
-6.341423	-0.065000	2706.644775
-5.341423	-0.065000	2706.112793
-4.341423	-0.065000	2712.083496
-3.341423	-0.065000	2704.762207
-2.341423	-0.065000	2702.254639
-1.341423	-0.065000	2699.250732
-0.341423	-0.065000	2694.130859
0.658577	-0.065000	2692.877441
1.658577	-0.065000	2697.702637
2.658577	-0.065000	2706.996338
3.658577	-0.065000	2709.577881
4.658577	-0.065000	2711.551514
5.658577	-0.065000	2705.385254
6.658577	-0.065000	2703.392822
7.658577	-0.065000	2702.030518
8.658577	-0.065000	2704.829102
9.658577	-0.065000	2699.920410
10.658577	-0.065000	2706.177002
11.658577	-0.065000	2701.321533
12.658577	-0.065000	2695.953613
13.658577	-0.065000	2698.269531
14.658577	-0.065000	2703.424316
15.658577	-0.065000	2701.700684
16.658577	-0.065000	2703.085938
17.658577	-0.065000	2705.795898
18.658577	-0.065000	2695.836182
19.658577	-0.065000	2715.128906
20.658577	-0.065000	2699.478516
21.658577	-0.065000	2700.847412
22.658577	-0.065000	2693.884277
23.658577	-0.065000	2710.541260
24.658577	-0.065000	2709.949219
-39.341423	0.935000	2721.479004
-38.341423	0.935000	2721.256592
-37.341423	0.935000	2721.648682
-36.341423	0.935000	2719.494385
-35.341423	0.935000	2718.763916
-34.341423	0.935000	2715.192627
-33.341423	0.935000	2711.698975
-32.341423	0.935000	2710.918701
-31.341423	0.935000	2708.889160
-30.341423	0.935000	2711.448242
-29.341423	0.935000	2704.763184
-28.341423	0.935000	2718.180908
-27.341423	0.935000	2660.742920
-26.341423	0.935000	2718.563721
-25.341423	0.935000	2698.225586
-24.341423	0.935000	2706.605469
-23.341423	0.935000	2703.319336
-22.341423	0.935000	2701.390625
-21.341423	0.935000	2703.919678
-20.341423	0.935000	2706.685547
-19.341423	0.935000	2702.505859
-18.341423	0.935000	2707.116211
-17.341423	0.935000	2712.202148
-16.341423	0.935000	2711.396729
-15.341423	0.935000	2703.991455
-14.341423	0.935000	2696.405518
-13.341423	0.935000	2703.234131
-12.341423	0.935000	2700.772461
-11.341423	0.935000	2696.759277
-10.341423	0.935000	2708.033447
-9.341423	0.935000	2709.690430
-8.341423	0.935000	2708.599854
-7.341423	0.935000	2709.114258
-6.341423	0.935000	2706.672852
-5.341423	0.935000	2698.221191
-4.341423	0.935000	2703.390137
-3.341423	0.935000	2702.089111
-2.341423	0.935000	2701.623291
-1.341423	0.935000	2701.996338
-0.341423	0.935000	2696.852539
0.658577	0.935000	2697.062744
1.658577	0.935000	2697.997314
2.658577	0.935000	2709.193115
3.658577	0.935000	2707.994385
4.658577	0.935000	2706.977051
5.658577	0.935000	2706.572266
6.658577	0.935000	2700.748047
7.658577	0.935000	2706.187500
8.658577	0.935000	2702.710205
9.658577	0.935000	2702.485840
10.658577	0.935000	2704.528076
11.658577	0.935000	2702.093506
12.658577	0.935000	2701.815674
13.658577	0.935000	2702.679932
14.658577	0.935000	2705.552246
15.658577	0.935000	2701.837402
16.658577	0.935000	2701.284424
17.658577	0.935000	2698.931396
18.658577	0.935000	2698.771240
19.658577	0.935000	2699.661621
20.658577	0.935000	2696.890137
21.658577	0.935000	2701.043457
22.658577	0.935000	2697.694336
23.658577	0.935000	2698.852783
24.658577	0.935000	2709.509766
-39.341423	1.935000	2717.697998
-38.341423	1.935000	2718.224365
-37.341423	1.935000	2716.595215
-36.341423	1.935000	2709.409668
-35.341423	1.935000	2706.267578
-34.341423	1.935000	2712.714111
-33.341423	1.935000	2703.814209
-32.341423	1.935000	2702.421875
-31.341423	1.935000	2704.598633
-30.341423	1.935000	2701.659180
-29.341423	1.935000	2700.752686
-28.341423	1.935000	2681.027588
-27.341423	1.935000	2698.519775
-26.341423	1.935000	2700.192383
-25.341423	1.935000	2699.648926
-24.341423	1.935000	2713.371582
-23.341423	1.935000	2708.426514
-22.341423	1.935000	2705.781494
-21.341423	1.935000	2703.008789
-20.341423	1.935000	2700.178467
-19.341423	1.935000	2704.915283
-18.341423	1.935000	2718.090576
-17.341423	1.935000	2709.382324
-16.341423	1.935000	2707.752441
-15.341423	1.935000	2701.700684
-14.341423	1.935000	2705.584717
-13.341423	1.935000	2704.394531
-12.341423	1.935000	2695.086426
-11.341423	1.935000	2706.801514
-10.341423	1.935000	2705.090088
-9.341423	1.935000	2706.576660
-8.341423	1.935000	2704.498047
-7.341423	1.935000	2706.419189
-6.341423	1.935000	2704.262939
-5.341423	1.935000	2701.841553
-4.341423	1.935000	2692.476318
-3.341423	1.935000	2697.959473
-2.341423	1.935000	2703.436768
-1.341423	1.935000	2698.984863
-0.341423	1.935000	2698.982178
0.658577	1.935000	2701.663330
1.658577	1.935000	2704.808105
2.658577	1.935000	2708.305908
3.658577	1.935000	2709.257813
4.658577	1.935000	2712.283447
5.658577	1.935000	2701.282959
6.658577	1.935000	2702.040771
7.658577	1.935000	2697.462158
8.658577	1.935000	2706.641846
9.658577	1.935000	2694.774414
10.658577	1.935000	2702.264404
11.658577	1.935000	2702.149902
12.658577	1.935000	2696.054688
13.658577	1.935000	2694.792236
14.658577	1.935000	2702.222656
15.658577	1.935000	2701.991455
16.658577	1.935000	2704.906494
17.658577	1.935000	2703.869385
18.658577	1.935000	2696.389893
19.658577	1.935000	2700.194092
20.658577	1.935000	2697.588379
21.658577	1.935000	2698.417725
22.658577	1.935000	2694.789063
23.658577	1.935000	2699.033691
24.658577	1.935000	2701.921631
-39.341423	2.935000	2717.725830
-38.341423	2.935000	2711.652588
-37.341423	2.935000	2705.331055
-36.341423	2.935000	2707.575928
-35.341423	2.935000	2707.913086
-34.341423	2.935000	2712.476807
-33.341423	2.935000	2712.524902
-32.341423	2.935000	2700.436523
-31.341423	2.935000	2702.295898
-30.341423	2.935000	2701.580566
-29.341423	2.935000	2704.204834
-28.341423	2.935000	2704.380615
-27.341423	2.935000	2705.468750
-26.341423	2.935000	2704.567871
-25.341423	2.935000	2706.557861
-24.341423	2.935000	2710.711670
-23.341423	2.935000	2711.043701
-22.341423	2.935000	2707.612061
-21.341423	2.935000	2704.435547
-20.341423	2.935000	2699.042725
-19.341423	2.935000	2697.396240
-18.341423	2.935000	2708.465820
-17.341423	2.935000	2717.166260
-16.341423	2.935000	2750.000000
-15.341423	2.935000	2737.915283
-14.341423	2.935000	2701.554199
-13.341423	2.935000	2704.729248
-12.341423	2.935000	2700.928711
-11.341423	2.935000	2703.164063
-10.341423	2.935000	2692.665283
-9.341423	2.935000	2701.746826
-8.341423	2.935000	2703.973145
-7.341423	2.935000	2704.670410
-6.341423	2.935000	2704.693604
-5.341423	2.935000	2695.064697
-4.341423	2.935000	2693.633789
-3.341423	2.935000	2699.317871
-2.341423	2.935000	2691.965088
-1.341423	2.935000	2698.421875
-0.341423	2.935000	2696.336426
0.658577	2.935000	2699.754395
1.658577	2.935000	2705.390381
2.658577	2.935000	2707.308350
3.658577	2.935000	2711.178955
4.658577	2.935000	2709.655029
5.658577	2.935000	2704.641602
6.658577	2.935000	2703.475830
7.658577	2.935000	2707.843262
8.658577	2.935000	2703.869141
9.658577	2.935000	2703.732910
10.658577	2.935000	2696.715088
11.658577	2.935000	2704.475830
12.658577	2.935000	2705.340820
13.658577	2.935000	2695.810059
14.658577	2.935000	2703.724854
15.658577	2.935000	2702.271729
16.658577	2.935000	2702.802002
17.658577	2.935000	2703.799316
18.658577	2.935000	2700.656250
19.658577	2.935000	2710.675537
20.658577	2.935000	2706.545166
21.658577	2.935000	2698.336914
22.658577	2.935000	2696.888916
23.658577	2.935000	2701.503418
24.658577	2.935000	2707.844971
-39.341423	3.935000	2707.753418
-38.341423	3.935000	2703.813477
-37.341423	3.935000	2707.440430
-36.341423	3.935000	2711.509766
-35.341423	3.935000	2706.148193
-34.341423	3.935000	2716.250488
-33.341423	3.935000	2713.795898
-32.341423	3.935000	2706.284668
-31.341423	3.935000	2701.265381
-30.341423	3.935000	2701.371826
-29.341423	3.935000	2703.322510
-28.341423	3.935000	2706.734863
-27.341423	3.935000	2707.093018
-26.341423	3.935000	2702.871338
-25.341423	3.935000	2705.218994
-24.341423	3.935000	2706.105713
-23.341423	3.935000	2708.536377
-22.341423	3.935000	2706.884277
-21.341423	3.935000	2699.427490
-20.341423	3.935000	2699.774170
-19.341423	3.935000	2706.162598
-18.341423	3.935000	2702.382568
-17.341423	3.935000	2701.128906
-16.341423	3.935000	2701.048584
-15.341423	3.935000	2715.040039
-14.341423	3.935000	2694.399902
-13.341423	3.935000	2698.295166
-12.341423	3.935000	2704.538330
-11.341423	3.935000	2700.901855
-10.341423	3.935000	2703.471924
-9.341423	3.935000	2706.577148
-8.341423	3.935000	2711.964355
-7.341423	3.935000	2710.742188
-6.341423	3.935000	2705.110840
-5.341423	3.935000	2698.627930
-4.341423	3.935000	2703.547852
-3.341423	3.935000	2699.530273
-2.341423	3.935000	2698.302979
-1.341423	3.935000	2695.303467
-0.341423	3.935000	2693.009521
0.658577	3.935000	2698.306152
1.658577	3.935000	2700.757324
2.658577	3.935000	2704.666260
3.658577	3.935000	2710.835205
4.658577	3.935000	2706.943848
5.658577	3.935000	2705.670654
6.658577	3.935000	2703.567627
7.658577	3.935000	2701.028076
8.658577	3.935000	2699.366455
9.658577	3.935000	2700.689453
10.658577	3.935000	2705.332031
11.658577	3.935000	2706.111816
12.658577	3.935000	2705.822266
13.658577	3.935000	2703.675049
14.658577	3.935000	2701.310791
15.658577	3.935000	2703.666260
16.658577	3.935000	2703.941162
17.658577	3.935000	2702.119629
18.658577	3.935000	2694.464111
19.658577	3.935000	2691.046875
20.658577	3.935000	2693.740967
21.658577	3.935000	2695.809082
22.658577	3.935000	2700.593018
23.658577	3.935000	2704.929443
24.658577	3.935000	2707.970215
-39.341423	4.935000	2694.442383
-38.341423	4.935000	2704.196289
-37.341423	4.935000	2693.830078
-36.341423	4.935000	2701.905518
-35.341423	4.935000	2701.076416
-34.341423	4.935000	2706.573975
-33.341423	4.935000	2710.557617
-32.341423	4.935000	2710.124512
-31.341423	4.935000	2704.764893
-30.341423	4.935000	2702.616211
-29.341423	4.935000	2703.282227
-28.341423	4.935000	2703.379883
-27.341423	4.935000	2706.677490
-26.341423	4.935000	2708.299072
-25.341423	4.935000	2703.859863
-24.341423	4.935000	2705.381348
-23.341423	4.935000	2709.026367
-22.341423	4.935000	2705.987305
-21.341423	4.935000	2708.560059
-20.341423	4.935000	2709.300537
-19.341423	4.935000	2705.650879
-18.341423	4.935000	2704.298096
-17.341423	4.935000	2702.499023
-16.341423	4.935000	2702.270508
-15.341423	4.935000	2699.156738
-14.341423	4.935000	2703.142334
-13.341423	4.935000	2750.000000
-12.341423	4.935000	2704.573730
-11.341423	4.935000	2702.109863
-10.341423	4.935000	2708.270996
-9.341423	4.935000	2705.505615
-8.341423	4.935000	2711.485107
-7.341423	4.935000	2709.981689
-6.341423	4.935000	2704.520020
-5.341423	4.935000	2707.055908
-4.341423	4.935000	2695.147949
-3.341423	4.935000	2693.286133
-2.341423	4.935000	2694.937744
-1.341423	4.935000	2701.629150
-0.341423	4.935000	2694.936523
0.658577	4.935000	2691.945313
1.658577	4.935000	2696.689697
2.658577	4.935000	2706.113525
3.658577	4.935000	2708.190674
4.658577	4.935000	2704.571045
5.658577	4.935000	2701.627686
6.658577	4.935000	2699.534668
7.658577	4.935000	2705.954834
8.658577	4.935000	2701.401123
9.658577	4.935000	2698.719238
10.658577	4.935000	2705.922852
11.658577	4.935000	2708.020020
12.658577	4.935000	2705.007324
13.658577	4.935000	2705.484131
14.658577	4.935000	2702.200195
15.658577	4.935000	2697.300781
16.658577	4.935000	2699.250732
17.658577	4.935000	2698.790527
18.658577	4.935000	2694.709961
19.658577	4.935000	2692.179199
20.658577	4.935000	2701.621826
21.658577	4.935000	2701.424316
22.658577	4.935000	2700.097656
23.658577	4.935000	2705.313965
24.658577	4.935000	2706.190918
-39.341423	5.935000	2706.494873
-38.341423	5.935000	2705.415039
-37.341423	5.935000	2695.195557
-36.341423	5.935000	2701.662598
-35.341423	5.935000	2700.622070
-34.341423	5.935000	2705.632080
-33.341423	5.935000	2706.524658
-32.341423	5.935000	2703.729004
-31.341423	5.935000	2701.403564
-30.341423	5.935000	2698.859619
-29.341423	5.935000	2706.230225
-28.341423	5.935000	2693.510010
-27.341423	5.935000	2707.411865
-26.341423	5.935000	2703.355225
-25.341423	5.935000	2703.663086
-24.341423	5.935000	2706.029541
-23.341423	5.935000	2706.213135
-22.341423	5.935000	2708.136475
-21.341423	5.935000	2705.007813
-20.341423	5.935000	2703.103516
-19.341423	5.935000	2696.188232
-18.341423	5.935000	2704.758301
-17.341423	5.935000	2697.685547
-16.341423	5.935000	2702.717529
-15.341423	5.935000	2706.028809
-14.341423	5.935000	2706.160156
-13.341423	5.935000	2713.396973
-12.341423	5.935000	2700.614746
-11.341423	5.935000	2698.687744
-10.341423	5.935000	2700.213135
-9.341423	5.935000	2704.636230
-8.341423	5.935000	2708.023193
-7.341423	5.935000	2714.335205
-6.341423	5.935000	2707.766113
-5.341423	5.935000	2728.361572
-4.341423	5.935000	2720.935059
-3.341423	5.935000	2699.934570
-2.341423	5.935000	2700.552002
-1.341423	5.935000	2700.395020
-0.341423	5.935000	2699.430176
0.658577	5.935000	2693.135010
1.658577	5.935000	2691.826172
2.658577	5.935000	2705.396973
3.658577	5.935000	2697.044434
4.658577	5.935000	2702.667969
5.658577	5.935000	2706.300293
6.658577	5.935000	2707.887695
7.658577	5.935000	2707.752686
8.658577	5.935000	2707.854492
9.658577	5.935000	2699.250488
10.658577	5.935000	2700.254639
11.658577	5.935000	2703.160889
12.658577	5.935000	2705.050049
13.658577	5.935000	2705.021484
14.658577	5.935000	2702.303223
15.658577	5.935000	2690.537109
16.658577	5.935000	2718.266602
17.658577	5.935000	2705.164063
18.658577	5.935000	2696.603516
19.658577	5.935000	2696.180908
20.658577	5.935000	2699.212158
21.658577	5.935000	2698.797119
22.658577	5.935000	2697.929443
23.658577	5.935000	2705.294434
24.658577	5.935000	2707.680420
-39.341423	6.935000	2703.537842
-38.341423	6.935000	2694.268555
-37.341423	6.935000	2707.940918
-36.341423	6.935000	2693.666016
-35.341423	6.935000	2705.526123
-34.341423	6.935000	2703.172119
-33.341423	6.935000	2708.245605
-32.341423	6.935000	2703.536621
-31.341423	6.935000	2705.712646
-30.341423	6.935000	2703.563232
-29.341423	6.935000	2703.156006
-28.341423	6.935000	2706.548584
-27.341423	6.935000	2711.599121
-26.341423	6.935000	2708.550781
-25.341423	6.935000	2702.065430
-24.341423	6.935000	2693.503418
-23.341423	6.935000	2709.134766
-22.341423	6.935000	2711.944580
-21.341423	6.935000	2706.665527
-20.341423	6.935000	2698.250244
-19.341423	6.935000	2695.669189
-18.341423	6.935000	2703.689697
-17.341423	6.935000	2702.181641
-16.341423	6.935000	2703.134521
-15.341423	6.935000	2706.757568
-14.341423	6.935000	2704.143311
-13.341423	6.935000	2705.531982
-12.341423	6.935000	2707.972656
-11.341423	6.935000	2700.134521
-10.341423	6.935000	2703.230469
-9.341423	6.935000	2705.591553
-8.341423	6.935000	2700.620850
-7.341423	6.935000	2708.135010
-6.341423	6.935000	2712.328857
-5.341423	6.935000	2708.126465
-4.341423	6.935000	2700.285156
-3.341423	6.935000	2702.841797
-2.341423	6.935000	2700.194336
-1.341423	6.935000	2696.593506
-0.341423	6.935000	2700.991943
0.658577	6.935000	2694.750244
1.658577	6.935000	2699.541748
2.658577	6.935000	2699.230225
3.658577	6.935000	2711.636230
4.658577	6.935000	2705.598633
5.658577	6.935000	2708.664063
6.658577	6.935000	2704.880371
7.658577	6.935000	2708.384033
8.658577	6.935000	2706.703613
9.658577	6.935000	2707.511230
10.658577	6.935000	2696.503906
11.658577	6.935000	2704.043945
12.658577	6.935000	2700.602295
13.658577	6.935000	2700.052979
14.658577	6.935000	2698.796387
15.658577	6.935000	2701.223633
16.658577	6.935000	2698.793701
17.658577	6.935000	2701.075439
18.658577	6.935000	2697.401855
19.658577	6.935000	2705.875732
20.658577	6.935000	2699.897217
21.658577	6.935000	2696.797852
22.658577	6.935000	2703.140137
23.658577	6.935000	2706.099365
24.658577	6.935000	2703.060059
-39.341423	7.935000	2702.322266
-38.341423	7.935000	2701.651855
-37.341423	7.935000	2699.391113
-36.341423	7.935000	2701.219238
-35.341423	7.935000	2702.182861
-34.341423	7.935000	2705.714111
-33.341423	7.935000	2703.781250
-32.341423	7.935000	2705.538818
-31.341423	7.935000	2703.491211
-30.341423	7.935000	2705.663086
-29.341423	7.935000	2704.805908
-28.341423	7.935000	2710.562744
-27.341423	7.935000	2711.503418
-26.341423	7.935000	2709.723877
-25.341423	7.935000	2705.979492
-24.341423	7.935000	2705.999268
-23.341423	7.935000	2705.486816
-22.341423	7.935000	2710.439941
-21.341423	7.935000	2707.181396
-20.341423	7.935000	2706.274658
-19.341423	7.935000	2703.803467
-18.341423	7.935000	2702.764160
-17.341423	7.935000	2701.702393
-16.341423	7.935000	2702.958008
-15.341423	7.935000	2706.333740
-14.341423	7.935000	2707.834473
-13.341423	7.935000	2706.531250
-12.341423	7.935000	2705.094971
-11.341423	7.935000	2705.855957
-10.341423	7.935000	2701.732178
-9.341423	7.935000	2703.260010
-8.341423	7.935000	2705.333984
-7.341423	7.935000	2699.710693
-6.341423	7.935000	2708.920898
-5.341423	7.935000	2706.044434
-4.341423	7.935000	2701.600586
-3.341423	7.935000	2703.201416
-2.341423	7.935000	2694.325439
-1.341423	7.935000	2699.430176
-0.341423	7.935000	2699.871338
0.658577	7.935000	2691.834961
1.658577	7.935000	2701.123535
2.658577	7.935000	2701.566162
3.658577	7.935000	2708.879395
4.658577	7.935000	2706.317871
5.658577	7.935000	2711.024170
6.658577	7.935000	2716.637451
7.658577	7.935000	2704.629639
8.658577	7.935000	2703.928711
9.658577	7.935000	2707.030518
10.658577	7.935000	2697.094971
11.658577	7.935000	2708.082031
12.658577	7.935000	2699.612305
13.658577	7.935000	2696.871582
14.658577	7.935000	2698.437012
15.658577	7.935000	2696.529053
16.658577	7.935000	2698.382324
17.658577	7.935000	2702.142578
18.658577	7.935000	2696.609619
19.658577	7.935000	2715.033936
20.658577	7.935000	2699.291016
21.658577	7.935000	2690.366455
22.658577	7.935000	2698.715820
23.658577	7.935000	2701.877441
24.658577	7.935000	2701.824707
-39.341423	8.935000	2692.647705
-38.341423	8.935000	2693.570068
-37.341423	8.935000	2698.050537
-36.341423	8.935000	2699.911133
-35.341423	8.935000	2703.255615
-34.341423	8.935000	2700.811523
-33.341423	8.935000	2700.873535
-32.341423	8.935000	2703.497803
-31.341423	8.935000	2702.213867
-30.341423	8.935000	2701.931396
-29.341423	8.935000	2703.325439
-28.341423	8.935000	2706.715088
-27.341423	8.935000	2704.822998
-26.341423	8.935000	2706.549561
-25.341423	8.935000	2705.666504
-24.341423	8.935000	2706.130127
-23.341423	8.935000	2707.554932
-22.341423	8.935000	2707.853760
-21.341423	8.935000	2708.562744
-20.341423	8.935000	2708.442871
-19.341423	8.935000	2705.816406
-18.341423	8.935000	2702.500000
-17.341423	8.935000	2703.046631
-16.341423	8.935000	2706.189209
-15.341423	8.935000	2693.930420
-14.341423	8.935000	2705.446533
-13.341423	8.935000	2706.527344
-12.341423	8.935000	2704.496094
-11.341423	8.935000	2706.416992
-10.341423	8.935000	2702.934326
-9.341423	8.935000	2703.154541
-8.341423	8.935000	2702.236328
-7.341423	8.935000	2704.477539
-6.341423	8.935000	2703.279053
-5.341423	8.935000	2705.358887
-4.341423	8.935000	2706.113037
-3.341423	8.935000	2701.508789
-2.341423	8.935000	2702.113525
-1.341423	8.935000	2694.987549
-0.341423	8.935000	2693.907471
0.658577	8.935000	2690.972168
1.658577	8.935000	2703.050781
2.658577	8.935000	2702.990723
3.658577	8.935000	2719.452393
4.658577	8.935000	2707.141357
5.658577	8.935000	2716.539551
6.658577	8.935000	2719.397705
7.658577	8.935000	2706.038086
8.658577	8.935000	2711.233154
9.658577	8.935000	2701.238770
10.658577	8.935000	2707.284668
11.658577	8.935000	2710.314453
12.658577	8.935000	2702.826904
13.658577	8.935000	2708.312988
14.658577	8.935000	2697.777344
15.658577	8.935000	2700.308594
16.658577	8.935000	2703.009766
17.658577	8.935000	2698.788330
18.658577	8.935000	2696.880371
19.658577	8.935000	2697.689941
20.658577	8.935000	2750.000000
21.658577	8.935000	2691.977295
22.658577	8.935000	2702.839600
23.658577	8.935000	2699.969971
24.658577	8.935000	2700.465088
-39.341423	9.935000	2702.911621
-38.341423	9.935000	2701.356689
-37.341423	9.935000	2703.370361
-36.341423	9.935000	2703.396729
-35.341423	9.935000	2703.367676
-34.341423	9.935000	2695.490723
-33.341423	9.935000	2704.280273
-32.341423	9.935000	2697.165771
-31.341423	9.935000	2693.990479
-30.341423	9.935000	2702.030762
-29.341423	9.935000	2700.323975
-28.341423	9.935000	2703.052490
-27.341423	9.935000	2706.922119
-26.341423	9.935000	2705.940186
-25.341423	9.935000	2702.657715
-24.341423	9.935000	2709.032715
-23.341423	9.935000	2698.516357
-22.341423	9.935000	2701.243896
-21.341423	9.935000	2703.228271
-20.341423	9.935000	2704.439453
-19.341423	9.935000	2706.087646
-18.341423	9.935000	2705.408203
-17.341423	9.935000	2704.308838
-16.341423	9.935000	2697.120605
-15.341423	9.935000	2701.536377
-14.341423	9.935000	2702.800781
-13.341423	9.935000	2702.560059
-12.341423	9.935000	2705.584961
-11.341423	9.935000	2705.893555
-10.341423	9.935000	2702.490479
-9.341423	9.935000	2700.379639
-8.341423	9.935000	2701.232178
-7.341423	9.935000	2704.640137
-6.341423	9.935000	2699.265625
-5.341423	9.935000	2696.217773
-4.341423	9.935000	2703.772217
-3.341423	9.935000	2705.198975
-2.341423	9.935000	2704.937012
-1.341423	9.935000	2696.236084
-0.341423	9.935000	2703.663574
0.658577	9.935000	2703.217529
1.658577	9.935000	2701.356445
2.658577	9.935000	2713.392334
3.658577	9.935000	2714.253662
4.658577	9.935000	2710.724854
5.658577	9.935000	2713.916992
6.658577	9.935000	2718.491699
7.658577	9.935000	2711.426270
8.658577	9.935000	2712.737305
9.658577	9.935000	2701.843506
10.658577	9.935000	2700.759766
11.658577	9.935000	2705.478027
12.658577	9.935000	2710.967041
13.658577	9.935000	2700.217529
14.658577	9.935000	2650.000000
15.658577	9.935000	2710.016846
16.658577	9.935000	2650.000000
17.658577	9.935000	2677.152832
18.658577	9.935000	2708.399902
19.658577	9.935000	2650.000000
20.658577	9.935000	2701.489014
21.658577	9.935000	2699.416992
22.658577	9.935000	2701.902344
23.658577	9.935000	2691.106934
24.658577	9.935000	2688.825684
-39.341423	10.935000	2702.788818
-38.341423	10.935000	2699.429199
-37.341423	10.935000	2704.440430
-36.341423	10.935000	2701.206299
-35.341423	10.935000	2703.197021
-34.341423	10.935000	2701.373779
-33.341423	10.935000	2701.287109
-32.341423	10.935000	2701.837402
-31.341423	10.935000	2702.907715
-30.341423	10.935000	2698.448975
-29.341423	10.935000	2697.733398
-28.341423	10.935000	2695.475098
-27.341423	10.935000	2705.654785
-26.341423	10.935000	2703.937988
-25.341423	10.935000	2710.034668
-24.341423	10.935000	2717.191650
-23.341423	10.935000	2702.635742
-22.341423	10.935000	2701.194580
-21.341423	10.935000	2703.502197
-20.341423	10.935000	2704.559326
-19.341423	10.935000	2705.639160
-18.341423	10.935000	2702.899658
-17.341423	10.935000	2701.898438
-16.341423	10.935000	2705.523193
-15.341423	10.935000	2700.740723
-14.341423	10.935000	2699.385742
-13.341423	10.935000	2703.596680
-12.341423	10.935000	2711.426270
-11.341423	10.935000	2706.915527
-10.341423	10.935000	2701.476563
-9.341423	10.935000	2701.796387
-8.341423	10.935000	2703.906738
-7.341423	10.935000	2702.555664
-6.341423	10.935000	2701.118652
-5.341423	10.935000	2696.817383
-4.341423	10.935000	2702.135254
-3.341423	10.935000	2703.990234
-2.341423	10.935000	2705.029297
-1.341423	10.935000	2699.878418
-0.341423	10.935000	2701.520020
0.658577	10.935000	2707.662354
1.658577	10.935000	2703.003906
2.658577	10.935000	2710.066406
3.658577	10.935000	2707.799805
4.658577	10.935000	2717.892090
5.658577	10.935000	2714.865234
6.658577	10.935000	2716.184326
7.658577	10.935000	2706.259033
8.658577	10.935000	2704.818848
9.658577	10.935000	2704.831055
10.658577	10.935000	2705.583496
11.658577	10.935000	2707.698730
12.658577	10.935000	2704.100586
13.658577	10.935000	2697.773193
14.658577	10.935000	2650.000000
15.658577	10.935000	2650.000000
16.658577	10.935000	2650.000000
17.658577	10.935000	2650.000000
18.658577	10.935000	2650.000000
19.658577	10.935000	2750.000000
20.658577	10.935000	2698.761719
21.658577	10.935000	2698.969727
22.658577	10.935000	2694.487305
23.658577	10.935000	2700.459717
24.658577	10.935000	2696.614014
-39.341423	11.935000	2698.195068
-38.341423	11.935000	2703.751709
-37.341423	11.935000	2697.569336
-36.341423	11.935000	2702.142334
-35.341423	11.935000	2703.021240
-34.341423	11.935000	2699.432861
-33.341423	11.935000	2703.542480
-32.341423	11.935000	2703.752930
-31.341423	11.935000	2693.568604
-30.341423	11.935000	2703.920410
-29.341423	11.935000	2704.488525
-28.341423	11.935000	2700.314453
-27.341423	11.935000	2704.810547
-26.341423	11.935000	2704.956299
-25.341423	11.935000	2701.548340
-24.341423	11.935000	2701.523438
-23.341423	11.935000	2701.897461
-22.341423	11.935000	2706.557129
-21.341423	11.935000	2704.776123
-20.341423	11.935000	2702.445068
-19.341423	11.935000	2700.843262
-18.341423	11.935000	2705.425293
-17.341423	11.935000	2705.108154
-16.341423	11.935000	2703.793701
-15.341423	11.935000	2701.459717
-14.341423	11.935000	2701.168457
-13.341423	11.935000	2696.331299
-12.341423	11.935000	2709.765137
-11.341423	11.935000	2708.806396
-10.341423	11.935000	2709.446289
-9.341423	11.935000	2703.097900
-8.341423	11.935000	2704.791504
-7.341423	11.935000	2703.353760
-6.341423	11.935000	2701.137695
-5.341423	11.935000	2701.711182
-4.341423	11.935000	2702.758545
-3.341423	11.935000	2697.813721
-2.341423	11.935000	2707.619141
-1.341423	11.935000	2701.940674
-0.341423	11.935000	2701.183838
0.658577	11.935000	2709.598145
1.658577	11.935000	2709.204590
2.658577	11.935000	2710.396729
3.658577	11.935000	2716.493164
4.658577	11.935000	2721.381104
5.658577	11.935000	2712.581787
6.658577	11.935000	2705.686768
7.658577	11.935000	2702.478516
8.658577	11.935000	2699.414307
9.658577	11.935000	2708.208252
10.658577	11.935000	2705.635010
11.658577	11.935000	2707.600342
12.658577	11.935000	2700.835693
13.658577	11.935000	2700.861816
14.658577	11.935000	2697.768311
15.658577	11.935000	2750.000000
16.658577	11.935000	2650.000000
17.658577	11.935000	2650.000000
18.658577	11.935000	2650.000000
19.658577	11.935000	2650.000000
20.658577	11.935000	2698.004150
21.658577	11.935000	2700.185791
22.658577	11.935000	2699.386475
23.658577	11.935000	2698.390137
24.658577	11.935000	2698.373535
-39.341423	12.935000	2701.184082
-38.341423	12.935000	2703.975830
-37.341423	12.935000	2699.934570
-36.341423	12.935000	2703.978760
-35.341423	12.935000	2703.860596
-34.341423	12.935000	2703.968018
-33.341423	12.935000	2703.286377
-32.341423	12.935000	2701.976318
-31.341423	12.935000	2703.129150
-30.341423	12.935000	2695.722168
-29.341423	12.935000	2699.923828
-28.341423	12.935000	2700.375732
-27.341423	12.935000	2696.019043
-26.341423	12.935000	2702.677002
-25.341423	12.935000	2717.115723
-24.341423	12.935000	2699.778320
-23.341423	12.935000	2699.102539
-22.341423	12.935000	2702.328857
-21.341423	12.935000	2700.522461
-20.341423	12.935000	2709.395020
-19.341423	12.935000	2703.083496
-18.341423	12.935000	2705.373291
-17.341423	12.935000	2705.239990
-16.341423	12.935000	2703.583740
-15.341423	12.935000	2702.787109
-14.341423	12.935000	2704.270996
-13.341423	12.935000	2703.912598
-12.341423	12.935000	2708.664307
-11.341423	12.935000	2706.324219
-10.341423	12.935000	2704.952393
-9.341423	12.935000	2704.201904
-8.341423	12.935000	2712.180664
-7.341423	12.935000	2704.912598
-6.341423	12.935000	2685.106201
-5.341423	12.935000	2707.482178
-4.341423	12.935000	2698.925537
-3.341423	12.935000	2697.428467
-2.341423	12.935000	2707.755371
-1.341423	12.935000	2703.567383
-0.341423	12.935000	2701.813965
0.658577	12.935000	2708.662598
1.658577	12.935000	2712.850586
2.658577	12.935000	2706.355225
3.658577	12.935000	2710.534912
4.658577	12.935000	2720.149414
5.658577	12.935000	2706.705078
6.658577	12.935000	2700.513184
7.658577	12.935000	2699.708008
8.658577	12.935000	2706.355713
9.658577	12.935000	2703.750977
10.658577	12.935000	2705.778320
11.658577	12.935000	2704.395020
12.658577	12.935000	2708.512207
13.658577	12.935000	2698.239014
14.658577	12.935000	2650.000000
15.658577	12.935000	2650.000000
16.658577	12.935000	2750.000000
17.658577	12.935000	2650.000000
18.658577	12.935000	2650.000000
19.658577	12.935000	2650.000000
20.658577	12.935000	2650.000000
21.658577	12.935000	2682.355713
22.658577	12.935000	2701.701904
23.658577	12.935000	2700.761963
24.658577	12.935000	2697.926514
-39.341423	13.935000	2702.344727
-38.341423	13.935000	2703.818848
-37.341423	13.935000	2701.224609
-36.341423	13.935000	2701.269287
-35.341423	13.935000	2695.611816
-34.341423	13.935000	2697.292969
-33.341423	13.935000	2701.187012
-32.341423	13.935000	2700.822754
-31.341423	13.935000	2703.368896
-30.341423	13.935000	2695.984131
-29.341423	13.935000	2693.366943
-28.341423	13.935000	2701.822510
-27.341423	13.935000	2700.171875
-26.341423	13.935000	2701.848877
-25.341423	13.935000	2703.844238
-24.341423	13.935000	2703.943115
-23.341423	13.935000	2707.461182
-22.341423	13.935000	2703.577148
-21.341423	13.935000	2706.328857
-20.341423	13.935000	2702.857178
-19.341423	13.935000	2704.507813
-18.341423	13.935000	2702.801758
-17.341423	13.935000	2703.852295
-16.341423	13.935000	2705.053467
-15.341423	13.935000	2699.679443
-14.341423	13.935000	2701.573730
-13.341423	13.935000	2704.052734
-12.341423	13.935000	2706.147217
-11.341423	13.935000	2703.932861
-10.341423	13.935000	2701.779541
-9.341423	13.935000	2702.564697
-8.341423	13.935000	2715.048828
-7.341423	13.935000	2708.038086
-6.341423	13.935000	2701.692871
-5.341423	13.935000	2704.478760
-4.341423	13.935000	2698.175293
-3.341423	13.935000	2698.979004
-2.341423	13.935000	2704.963623
-1.341423	13.935000	2706.520264
-0.341423	13.935000	2703.381348
0.658577	13.935000	2707.127930
1.658577	13.935000	2706.407715
2.658577	13.935000	2708.140381
3.658577	13.935000	2712.879639
4.658577	13.935000	2691.430420
5.658577	13.935000	2704.856201
6.658577	13.935000	2702.081055
7.658577	13.935000	2701.087646
8.658577	13.935000	2701.957520
9.658577	13.935000	2703.689941
10.658577	13.935000	2706.336670
11.658577	13.935000	2707.091797
12.658577	13.935000	2704.431885
13.658577	13.935000	2707.641357
14.658577	13.935000	2650.000000
15.658577	13.935000	2650.000000
16.658577	13.935000	2650.000000
17.658577	13.935000	2650.000000
18.658577	13.935000	2650.000000
19.658577	13.935000	2650.000000
20.658577	13.935000	2700.251465
21.658577	13.935000	2650.000000
22.658577	13.935000	2719.188721
23.658577	13.935000	2650.000000
24.658577	13.935000	2650.000000
-39.341423	14.935000	2693.585449
-38.341423	14.935000	2695.119141
-37.341423	14.935000	2701.140137
-36.341423	14.935000	2700.683838
-35.341423	14.935000	2693.396973
-34.341423	14.935000	2703.035645
-33.341423	14.935000	2706.111328
-32.341423	14.935000	2704.134521
-31.341423	14.935000	2703.391357
-30.341423	14.935000	2704.430664
-29.341423	14.935000	2701.813965
-28.341423	14.935000	2699.634521
-27.341423	14.935000	2701.138428
-26.341423	14.935000	2703.468018
-25.341423	14.935000	2700.979980
-24.341423	14.935000	2700.233398
-23.341423	14.935000	2699.123291
-22.341423	14.935000	2702.535645
-21.341423	14.935000	2701.981689
-20.341423	14.935000	2703.900879
-19.341423	14.935000	2704.416016
-18.341423	14.935000	2700.824219
-17.341423	14.935000	2705.034668
-16.341423	14.935000	2700.760010
-15.341423	14.935000	2704.141113
-14.341423	14.935000	2698.374512
-13.341423	14.935000	2698.443848
-12.341423	14.935000	2699.300537
-11.341423	14.935000	2701.850586
-10.341423	14.935000	2689.832764
-9.341423	14.935000	2695.125732
-8.341423	14.935000	2706.063965
-7.341423	14.935000	2701.446045
-6.341423	14.935000	2693.938232
-5.341423	14.935000	2710.173584
-4.341423	14.935000	2706.831787
-3.341423	14.935000	2698.338867
-2.341423	14.935000	2703.719971
-1.341423	14.935000	2700.417480
-0.341423	14.935000	2705.619141
0.658577	14.935000	2710.843994
1.658577	14.935000	2707.177979
2.658577	14.935000	2707.609375
3.658577	14.935000	2702.477295
4.658577	14.935000	2650.000000
5.658577	14.935000	2709.813721
6.658577	14.935000	2730.092041
7.658577	14.935000	2705.384277
8.658577	14.935000	2702.685303
9.658577	14.935000	2702.335693
10.658577	14.935000	2706.457520
11.658577	14.935000	2706.935791
12.658577	14.935000	2695.781006
13.658577	14.935000	2689.695801
14.658577	14.935000	2650.000000
15.658577	14.935000	2750.000000
16.658577	14.935000	2686.351074
17.658577	14.935000	2650.000000
18.658577	14.935000	2689.666016
19.658577	14.935000	2672.792725
20.658577	14.935000	2650.000000
21.658577	14.935000	2650.000000
22.658577	14.935000	2676.004395
23.658577	14.935000	2650.000000
24.658577	14.935000	2664.239502
-39.341423	15.935000	2699.930420
-38.341423	15.935000	2704.561523
-37.341423	15.935000	2699.021973
-36.341423	15.935000	2697.991211
-35.341423	15.935000	2702.371582
-34.341423	15.935000	2703.834473
-33.341423	15.935000	2700.959717
-32.341423	15.935000	2699.822021
-31.341423	15.935000	2703.176758
-30.341423	15.935000	2709.162842
-29.341423	15.935000	2705.063232
-28.341423	15.935000	2699.151611
-27.341423	15.935000	2697.036865
-26.341423	15.935000	2700.452881
-25.341423	15.935000	2703.792725
-24.341423	15.935000	2698.063721
-23.341423	15.935000	2694.386475
-22.341423	15.935000	2708.007813
-21.341423	15.935000	2705.374756
-20.341423	15.935000	2706.752441
-19.341423	15.935000	2704.418945
-18.341423	15.935000	2700.409912
-17.341423	15.935000	2700.673340
-16.341423	15.935000	2702.111084
-15.341423	15.935000	2693.799561
-14.341423	15.935000	2694.683105
-13.341423	15.935000	2700.084717
-12.341423	15.935000	2694.695557
-11.341423	15.935000	2697.406006
-10.341423	15.935000	2704.142822
-9.341423	15.935000	2742.058105
-8.341423	15.935000	2711.079590
-7.341423	15.935000	2701.135986
-6.341423	15.935000	2702.130859
-5.341423	15.935000	2715.781250
-4.341423	15.935000	2717.396484
-3.341423	15.935000	2715.776123
-2.341423	15.935000	2706.890869
-1.341423	15.935000	2704.578125
-0.341423	15.935000	2708.366211
0.658577	15.935000	2711.947998
1.658577	15.935000	2706.545654
2.658577	15.935000	2705.212158
3.658577	15.935000	2699.380127
4.658577	15.935000	2750.000000
5.658577	15.935000	2650.000000
6.658577	15.935000	2674.691895
7.658577	15.935000	2684.750244
8.658577	15.935000	2705.399170
9.658577	15.935000	2703.268555
10.658577	15.935000	2700.926514
11.658577	15.935000	2700.528809
12.658577	15.935000	2695.610596
13.658577	15.935000	2697.049316
14.658577	15.935000	2650.000000
15.658577	15.935000	2723.753906
16.658577	15.935000	2650.011719
17.658577	15.935000	2650.000000
18.658577	15.935000	2650.000000
19.658577	15.935000	2650.000000
20.658577	15.935000	2750.000000
21.658577	15.935000	2650.000000
22.658577	15.935000	2650.000000
23.658577	15.935000	2705.504883
24.658577	15.935000	2650.000000
