#XList		#YList		#IList		
-39.341423	-21.065000	3175.486328
-38.341423	-21.065000	3144.375000
-37.341423	-21.065000	3176.468750
-36.341423	-21.065000	3179.153809
-35.341423	-21.065000	3160.847656
-34.341423	-21.065000	3163.848633
-33.341423	-21.065000	3158.637939
-32.341423	-21.065000	3167.133057
-31.341423	-21.065000	3159.734619
-30.341423	-21.065000	3160.853027
-29.341423	-21.065000	3160.128174
-28.341423	-21.065000	3159.601563
-27.341423	-21.065000	3170.263184
-26.341423	-21.065000	3154.050781
-25.341423	-21.065000	3168.579590
-24.341423	-21.065000	3214.633301
-23.341423	-21.065000	3100.000000
-22.341423	-21.065000	3100.000000
-21.341423	-21.065000	3171.581055
-20.341423	-21.065000	3224.354736
-19.341423	-21.065000	3100.000000
-18.341423	-21.065000	3100.000000
-17.341423	-21.065000	3173.966064
-16.341423	-21.065000	3160.154541
-15.341423	-21.065000	3157.446045
-14.341423	-21.065000	3335.440674
-13.341423	-21.065000	3152.999756
-12.341423	-21.065000	3164.477539
-11.341423	-21.065000	3166.151855
-10.341423	-21.065000	3231.490234
-9.341423	-21.065000	3128.703369
-8.341423	-21.065000	3156.980469
-7.341423	-21.065000	3176.738281
-6.341423	-21.065000	3170.783691
-5.341423	-21.065000	3164.623535
-4.341423	-21.065000	3184.905762
-3.341423	-21.065000	3161.393799
-2.341423	-21.065000	3176.822510
-1.341423	-21.065000	3164.309570
-0.341423	-21.065000	3161.347656
0.658577	-21.065000	3158.950928
1.658577	-21.065000	3177.346924
2.658577	-21.065000	3160.611084
3.658577	-21.065000	3162.573242
4.658577	-21.065000	3196.127930
5.658577	-21.065000	3177.276855
6.658577	-21.065000	3350.000000
7.658577	-21.065000	3350.000000
8.658577	-21.065000	3100.000000
9.658577	-21.065000	3240.275146
10.658577	-21.065000	3177.316895
11.658577	-21.065000	3176.050537
12.658577	-21.065000	3173.974365
13.658577	-21.065000	3174.785400
14.658577	-21.065000	3166.145020
15.658577	-21.065000	3179.872314
16.658577	-21.065000	3174.270508
17.658577	-21.065000	3185.721191
18.658577	-21.065000	3163.153564
19.658577	-21.065000	3158.750977
20.658577	-21.065000	3161.585693
21.658577	-21.065000	3100.000000
22.658577	-21.065000	3223.187500
23.658577	-21.065000	3100.000000
24.658577	-21.065000	3154.145264
-39.341423	-20.065000	3168.761963
-38.341423	-20.065000	3150.252930
-37.341423	-20.065000	3201.363525
-36.341423	-20.065000	3219.545166
-35.341423	-20.065000	3181.921387
-34.341423	-20.065000	3166.539795
-33.341423	-20.065000	3160.442627
-32.341423	-20.065000	3350.000000
-31.341423	-20.065000	3160.341309
-30.341423	-20.065000	3346.139648
-29.341423	-20.065000	3166.427490
-28.341423	-20.065000	3157.827393
-27.341423	-20.065000	3159.895752
-26.341423	-20.065000	3168.360840
-25.341423	-20.065000	3163.618652
-24.341423	-20.065000	3172.240723
-23.341423	-20.065000	3164.039551
-22.341423	-20.065000	3161.247314
-21.341423	-20.065000	3165.658691
-20.341423	-20.065000	3172.825684
-19.341423	-20.065000	3194.228516
-18.341423	-20.065000	3173.352539
-17.341423	-20.065000	3164.484131
-16.341423	-20.065000	3157.020020
-15.341423	-20.065000	3153.062988
-14.341423	-20.065000	3157.082275
-13.341423	-20.065000	3159.386963
-12.341423	-20.065000	3164.161133
-11.341423	-20.065000	3124.842285
-10.341423	-20.065000	3183.860840
-9.341423	-20.065000	3162.454346
-8.341423	-20.065000	3160.869385
-7.341423	-20.065000	3183.369629
-6.341423	-20.065000	3176.073486
-5.341423	-20.065000	3175.872803
-4.341423	-20.065000	3170.626953
-3.341423	-20.065000	3157.446289
-2.341423	-20.065000	3161.452637
-1.341423	-20.065000	3162.676514
-0.341423	-20.065000	3166.296631
0.658577	-20.065000	3157.008301
1.658577	-20.065000	3175.950928
2.658577	-20.065000	3185.091309
3.658577	-20.065000	3154.046875
4.658577	-20.065000	3217.577637
5.658577	-20.065000	3217.585693
6.658577	-20.065000	3108.841797
7.658577	-20.065000	3100.000000
8.658577	-20.065000	3100.000000
9.658577	-20.065000	3185.661621
10.658577	-20.065000	3100.000000
11.658577	-20.065000	3170.761719
12.658577	-20.065000	3164.811035
13.658577	-20.065000	3164.006104
14.658577	-20.065000	3157.960205
15.658577	-20.065000	3152.869385
16.658577	-20.065000	3163.606934
17.658577	-20.065000	3172.904053
18.658577	-20.065000	3163.058594
19.658577	-20.065000	3161.827881
20.658577	-20.065000	3163.414063
21.658577	-20.065000	3168.099121
22.658577	-20.065000	3123.899902
23.658577	-20.065000	3350.000000
24.658577	-20.065000	3167.605469
-39.341423	-19.065000	3159.393311
-38.341423	-19.065000	3165.306641
-37.341423	-19.065000	3171.762695
-36.341423	-19.065000	3210.065918
-35.341423	-19.065000	3137.085449
-34.341423	-19.065000	3199.802734
-33.341423	-19.065000	3169.583984
-32.341423	-19.065000	3162.061768
-31.341423	-19.065000	3158.502930
-30.341423	-19.065000	3154.240479
-29.341423	-19.065000	3165.501221
-28.341423	-19.065000	3159.419189
-27.341423	-19.065000	3165.435547
-26.341423	-19.065000	3161.194580
-25.341423	-19.065000	3161.509277
-24.341423	-19.065000	3153.093750
-23.341423	-19.065000	3168.613770
-22.341423	-19.065000	3155.290527
-21.341423	-19.065000	3160.078369
-20.341423	-19.065000	3168.464844
-19.341423	-19.065000	3163.424316
-18.341423	-19.065000	3172.961914
-17.341423	-19.065000	3159.566895
-16.341423	-19.065000	3160.998779
-15.341423	-19.065000	3159.842529
-14.341423	-19.065000	3293.869385
-13.341423	-19.065000	3159.967773
-12.341423	-19.065000	3164.876953
-11.341423	-19.065000	3167.007813
-10.341423	-19.065000	3162.887207
-9.341423	-19.065000	3161.874756
-8.341423	-19.065000	3167.213623
-7.341423	-19.065000	3173.506836
-6.341423	-19.065000	3173.162598
-5.341423	-19.065000	3180.049316
-4.341423	-19.065000	3157.374023
-3.341423	-19.065000	3170.472900
-2.341423	-19.065000	3172.002197
-1.341423	-19.065000	3176.573486
-0.341423	-19.065000	3173.833252
0.658577	-19.065000	3192.573730
1.658577	-19.065000	3175.219482
2.658577	-19.065000	3163.362549
3.658577	-19.065000	3159.519043
4.658577	-19.065000	3162.227295
5.658577	-19.065000	3227.513428
6.658577	-19.065000	3100.000000
7.658577	-19.065000	3128.410400
8.658577	-19.065000	3169.025146
9.658577	-19.065000	3154.016113
10.658577	-19.065000	3178.618408
11.658577	-19.065000	3165.811035
12.658577	-19.065000	3163.248779
13.658577	-19.065000	3167.113770
14.658577	-19.065000	3169.476318
15.658577	-19.065000	3182.214844
16.658577	-19.065000	3164.390625
17.658577	-19.065000	3172.343018
18.658577	-19.065000	3160.993896
19.658577	-19.065000	3164.106201
20.658577	-19.065000	3171.332520
21.658577	-19.065000	3165.526367
22.658577	-19.065000	3175.585938
23.658577	-19.065000	3100.000000
24.658577	-19.065000	3289.567871
-39.341423	-18.065000	3162.329834
-38.341423	-18.065000	3145.914307
-37.341423	-18.065000	3164.119629
-36.341423	-18.065000	3168.077881
-35.341423	-18.065000	3161.517578
-34.341423	-18.065000	3241.268799
-33.341423	-18.065000	3170.761475
-32.341423	-18.065000	3161.350586
-31.341423	-18.065000	3161.143066
-30.341423	-18.065000	3159.712158
-29.341423	-18.065000	3169.797607
-28.341423	-18.065000	3158.299805
-27.341423	-18.065000	3175.702393
-26.341423	-18.065000	3164.674072
-25.341423	-18.065000	3157.958252
-24.341423	-18.065000	3165.143799
-23.341423	-18.065000	3166.972900
-22.341423	-18.065000	3171.849854
-21.341423	-18.065000	3159.197510
-20.341423	-18.065000	3165.000732
-19.341423	-18.065000	3167.184814
-18.341423	-18.065000	3165.338623
-17.341423	-18.065000	3163.411621
-16.341423	-18.065000	3150.929199
-15.341423	-18.065000	3158.099609
-14.341423	-18.065000	3159.091309
-13.341423	-18.065000	3153.993652
-12.341423	-18.065000	3152.854492
-11.341423	-18.065000	3160.476318
-10.341423	-18.065000	3164.072998
-9.341423	-18.065000	3154.564697
-8.341423	-18.065000	3160.517822
-7.341423	-18.065000	3165.531494
-6.341423	-18.065000	3162.566895
-5.341423	-18.065000	3183.686279
-4.341423	-18.065000	3153.428711
-3.341423	-18.065000	3166.436035
-2.341423	-18.065000	3169.882080
-1.341423	-18.065000	3153.652100
-0.341423	-18.065000	3171.702148
0.658577	-18.065000	3176.772705
1.658577	-18.065000	3146.105469
2.658577	-18.065000	3180.631836
3.658577	-18.065000	3169.275635
4.658577	-18.065000	3173.415771
5.658577	-18.065000	3145.934082
6.658577	-18.065000	3168.043701
7.658577	-18.065000	3165.047363
8.658577	-18.065000	3350.000000
9.658577	-18.065000	3154.825195
10.658577	-18.065000	3165.587891
11.658577	-18.065000	3156.470947
12.658577	-18.065000	3154.891602
13.658577	-18.065000	3167.863037
14.658577	-18.065000	3160.069336
15.658577	-18.065000	3161.545166
16.658577	-18.065000	3157.750244
17.658577	-18.065000	3162.542236
18.658577	-18.065000	3163.419678
19.658577	-18.065000	3163.498779
20.658577	-18.065000	3171.775879
21.658577	-18.065000	3180.620850
22.658577	-18.065000	3162.860352
23.658577	-18.065000	3168.274414
24.658577	-18.065000	3165.203125
-39.341423	-17.065000	3155.146729
-38.341423	-17.065000	3169.469727
-37.341423	-17.065000	3163.275391
-36.341423	-17.065000	3165.779053
-35.341423	-17.065000	3199.001465
-34.341423	-17.065000	3201.673828
-33.341423	-17.065000	3205.544434
-32.341423	-17.065000	3148.586670
-31.341423	-17.065000	3169.459473
-30.341423	-17.065000	3165.655762
-29.341423	-17.065000	3177.933838
-28.341423	-17.065000	3159.181885
-27.341423	-17.065000	3167.385498
-26.341423	-17.065000	3155.301758
-25.341423	-17.065000	3151.033203
-24.341423	-17.065000	3162.925781
-23.341423	-17.065000	3168.773682
-22.341423	-17.065000	3165.745361
-21.341423	-17.065000	3164.820557
-20.341423	-17.065000	3150.636719
-19.341423	-17.065000	3154.903320
-18.341423	-17.065000	3167.333496
-17.341423	-17.065000	3162.775146
-16.341423	-17.065000	3155.260254
-15.341423	-17.065000	3152.488281
-14.341423	-17.065000	3151.238525
-13.341423	-17.065000	3152.591553
-12.341423	-17.065000	3349.958008
-11.341423	-17.065000	3159.402832
-10.341423	-17.065000	3161.854248
-9.341423	-17.065000	3158.669678
-8.341423	-17.065000	3160.553223
-7.341423	-17.065000	3178.049072
-6.341423	-17.065000	3157.840332
-5.341423	-17.065000	3159.712158
-4.341423	-17.065000	3155.613525
-3.341423	-17.065000	3147.706299
-2.341423	-17.065000	3154.622314
-1.341423	-17.065000	3157.190186
-0.341423	-17.065000	3181.917725
0.658577	-17.065000	3179.073975
1.658577	-17.065000	3153.329346
2.658577	-17.065000	3170.146973
3.658577	-17.065000	3184.793457
4.658577	-17.065000	3171.802734
5.658577	-17.065000	3196.383057
6.658577	-17.065000	3170.625488
7.658577	-17.065000	3164.619385
8.658577	-17.065000	3160.858887
9.658577	-17.065000	3155.579346
10.658577	-17.065000	3155.143311
11.658577	-17.065000	3155.749512
12.658577	-17.065000	3164.228516
13.658577	-17.065000	3167.394043
14.658577	-17.065000	3179.652344
15.658577	-17.065000	3165.780762
16.658577	-17.065000	3162.584229
17.658577	-17.065000	3195.294678
18.658577	-17.065000	3170.285400
19.658577	-17.065000	3175.742432
20.658577	-17.065000	3153.582764
21.658577	-17.065000	3158.251709
22.658577	-17.065000	3167.340576
23.658577	-17.065000	3157.793701
24.658577	-17.065000	3161.572754
-39.341423	-16.065000	3148.141846
-38.341423	-16.065000	3161.551514
-37.341423	-16.065000	3159.658447
-36.341423	-16.065000	3172.269531
-35.341423	-16.065000	3174.307373
-34.341423	-16.065000	3170.309082
-33.341423	-16.065000	3155.467773
-32.341423	-16.065000	3152.201904
-31.341423	-16.065000	3164.382813
-30.341423	-16.065000	3153.761230
-29.341423	-16.065000	3165.572266
-28.341423	-16.065000	3166.802246
-27.341423	-16.065000	3164.100830
-26.341423	-16.065000	3160.683838
-25.341423	-16.065000	3159.884277
-24.341423	-16.065000	3170.349365
-23.341423	-16.065000	3169.534668
-22.341423	-16.065000	3156.498535
-21.341423	-16.065000	3160.638916
-20.341423	-16.065000	3179.093018
-19.341423	-16.065000	3213.973389
-18.341423	-16.065000	3181.197998
-17.341423	-16.065000	3162.316895
-16.341423	-16.065000	3349.642578
-15.341423	-16.065000	3320.933594
-14.341423	-16.065000	3158.769043
-13.341423	-16.065000	3323.077637
-12.341423	-16.065000	3158.008789
-11.341423	-16.065000	3164.277100
-10.341423	-16.065000	3157.552002
-9.341423	-16.065000	3172.496094
-8.341423	-16.065000	3179.951416
-7.341423	-16.065000	3164.081787
-6.341423	-16.065000	3168.899902
-5.341423	-16.065000	3159.885986
-4.341423	-16.065000	3164.575928
-3.341423	-16.065000	3186.352051
-2.341423	-16.065000	3170.496094
-1.341423	-16.065000	3160.252930
-0.341423	-16.065000	3157.680420
0.658577	-16.065000	3163.808594
1.658577	-16.065000	3157.977783
2.658577	-16.065000	3169.851807
3.658577	-16.065000	3194.547119
4.658577	-16.065000	3200.703369
5.658577	-16.065000	3154.438477
6.658577	-16.065000	3164.947510
7.658577	-16.065000	3149.062256
8.658577	-16.065000	3158.239746
9.658577	-16.065000	3151.948975
10.658577	-16.065000	3152.782227
11.658577	-16.065000	3155.542236
12.658577	-16.065000	3161.883301
13.658577	-16.065000	3166.629883
14.658577	-16.065000	3151.755615
15.658577	-16.065000	3165.365479
16.658577	-16.065000	3168.717285
17.658577	-16.065000	3162.787109
18.658577	-16.065000	3174.247314
19.658577	-16.065000	3165.581787
20.658577	-16.065000	3181.698730
21.658577	-16.065000	3175.434326
22.658577	-16.065000	3172.273193
23.658577	-16.065000	3156.541748
24.658577	-16.065000	3169.085205
-39.341423	-15.065000	3167.674316
-38.341423	-15.065000	3122.371338
-37.341423	-15.065000	3145.420654
-36.341423	-15.065000	3157.576660
-35.341423	-15.065000	3350.000000
-34.341423	-15.065000	3158.106445
-33.341423	-15.065000	3350.000000
-32.341423	-15.065000	3100.080078
-31.341423	-15.065000	3146.843018
-30.341423	-15.065000	3152.655762
-29.341423	-15.065000	3163.729248
-28.341423	-15.065000	3168.417480
-27.341423	-15.065000	3166.551270
-26.341423	-15.065000	3160.079102
-25.341423	-15.065000	3164.698975
-24.341423	-15.065000	3164.152588
-23.341423	-15.065000	3154.386475
-22.341423	-15.065000	3174.618408
-21.341423	-15.065000	3165.968018
-20.341423	-15.065000	3161.827637
-19.341423	-15.065000	3204.970947
-18.341423	-15.065000	3157.436768
-17.341423	-15.065000	3173.299561
-16.341423	-15.065000	3156.135498
-15.341423	-15.065000	3154.691162
-14.341423	-15.065000	3346.677246
-13.341423	-15.065000	3159.537354
-12.341423	-15.065000	3163.472412
-11.341423	-15.065000	3141.954834
-10.341423	-15.065000	3165.101807
-9.341423	-15.065000	3172.937988
-8.341423	-15.065000	3159.116211
-7.341423	-15.065000	3163.453857
-6.341423	-15.065000	3174.229736
-5.341423	-15.065000	3171.295654
-4.341423	-15.065000	3176.457520
-3.341423	-15.065000	3177.844727
-2.341423	-15.065000	3166.238770
-1.341423	-15.065000	3162.955078
-0.341423	-15.065000	3163.808838
0.658577	-15.065000	3162.389160
1.658577	-15.065000	3182.782715
2.658577	-15.065000	3151.691895
3.658577	-15.065000	3181.734131
4.658577	-15.065000	3158.209961
5.658577	-15.065000	3339.364258
6.658577	-15.065000	3160.548340
7.658577	-15.065000	3143.222412
8.658577	-15.065000	3153.494873
9.658577	-15.065000	3168.492432
10.658577	-15.065000	3160.640869
11.658577	-15.065000	3154.696533
12.658577	-15.065000	3183.936035
13.658577	-15.065000	3180.378174
14.658577	-15.065000	3180.064209
15.658577	-15.065000	3126.571289
16.658577	-15.065000	3176.441406
17.658577	-15.065000	3166.653564
18.658577	-15.065000	3158.426270
19.658577	-15.065000	3153.520264
20.658577	-15.065000	3180.877441
21.658577	-15.065000	3158.720947
22.658577	-15.065000	3165.428223
23.658577	-15.065000	3158.293701
24.658577	-15.065000	3167.814941
-39.341423	-14.065000	3174.567871
-38.341423	-14.065000	3151.985840
-37.341423	-14.065000	3350.000000
-36.341423	-14.065000	3155.680664
-35.341423	-14.065000	3161.847168
-34.341423	-14.065000	3163.013184
-33.341423	-14.065000	3280.437744
-32.341423	-14.065000	3346.568359
-31.341423	-14.065000	3150.935547
-30.341423	-14.065000	3151.253906
-29.341423	-14.065000	3149.207520
-28.341423	-14.065000	3166.317627
-27.341423	-14.065000	3168.441650
-26.341423	-14.065000	3168.851807
-25.341423	-14.065000	3159.220703
-24.341423	-14.065000	3169.635986
-23.341423	-14.065000	3165.040527
-22.341423	-14.065000	3175.544678
-21.341423	-14.065000	3173.406006
-20.341423	-14.065000	3164.970459
-19.341423	-14.065000	3160.466553
-18.341423	-14.065000	3163.275391
-17.341423	-14.065000	3169.496582
-16.341423	-14.065000	3163.733398
-15.341423	-14.065000	3158.924316
-14.341423	-14.065000	3161.241211
-13.341423	-14.065000	3163.193604
-12.341423	-14.065000	3162.609619
-11.341423	-14.065000	3163.073730
-10.341423	-14.065000	3174.667236
-9.341423	-14.065000	3170.410889
-8.341423	-14.065000	3178.125000
-7.341423	-14.065000	3155.554932
-6.341423	-14.065000	3175.528320
-5.341423	-14.065000	3167.705811
-4.341423	-14.065000	3173.368408
-3.341423	-14.065000	3147.093262
-2.341423	-14.065000	3145.551270
-1.341423	-14.065000	3171.255127
-0.341423	-14.065000	3161.555420
0.658577	-14.065000	3165.351074
1.658577	-14.065000	3175.238525
2.658577	-14.065000	3179.064453
3.658577	-14.065000	3197.456787
4.658577	-14.065000	3196.236816
5.658577	-14.065000	3169.542236
6.658577	-14.065000	3156.167969
7.658577	-14.065000	3158.766846
8.658577	-14.065000	3157.252686
9.658577	-14.065000	3159.012451
10.658577	-14.065000	3154.871826
11.658577	-14.065000	3178.285156
12.658577	-14.065000	3161.994141
13.658577	-14.065000	3167.542725
14.658577	-14.065000	3195.569580
15.658577	-14.065000	3350.000000
16.658577	-14.065000	3164.692627
17.658577	-14.065000	3211.531738
18.658577	-14.065000	3196.325684
19.658577	-14.065000	3181.098877
20.658577	-14.065000	3173.373047
21.658577	-14.065000	3161.456055
22.658577	-14.065000	3161.567871
23.658577	-14.065000	3168.398926
24.658577	-14.065000	3187.785889
-39.341423	-13.065000	3158.950928
-38.341423	-13.065000	3165.189453
-37.341423	-13.065000	3152.911133
-36.341423	-13.065000	3325.130615
-35.341423	-13.065000	3350.000000
-34.341423	-13.065000	3259.295166
-33.341423	-13.065000	3347.418457
-32.341423	-13.065000	3153.253906
-31.341423	-13.065000	3151.538574
-30.341423	-13.065000	3164.404785
-29.341423	-13.065000	3155.778809
-28.341423	-13.065000	3164.561279
-27.341423	-13.065000	3168.668457
-26.341423	-13.065000	3157.457031
-25.341423	-13.065000	3160.895508
-24.341423	-13.065000	3150.613525
-23.341423	-13.065000	3161.440918
-22.341423	-13.065000	3158.423096
-21.341423	-13.065000	3160.551025
-20.341423	-13.065000	3164.231201
-19.341423	-13.065000	3153.505127
-18.341423	-13.065000	3154.034424
-17.341423	-13.065000	3190.188477
-16.341423	-13.065000	3162.394531
-15.341423	-13.065000	3157.462158
-14.341423	-13.065000	3163.475586
-13.341423	-13.065000	3213.267090
-12.341423	-13.065000	3183.630371
-11.341423	-13.065000	3171.501953
-10.341423	-13.065000	3166.650635
-9.341423	-13.065000	3177.416260
-8.341423	-13.065000	3169.479248
-7.341423	-13.065000	3171.864746
-6.341423	-13.065000	3169.338379
-5.341423	-13.065000	3163.406738
-4.341423	-13.065000	3191.954102
-3.341423	-13.065000	3172.628906
-2.341423	-13.065000	3174.871582
-1.341423	-13.065000	3152.597656
-0.341423	-13.065000	3165.382080
0.658577	-13.065000	3164.415283
1.658577	-13.065000	3157.931152
2.658577	-13.065000	3171.927002
3.658577	-13.065000	3177.916992
4.658577	-13.065000	3189.408691
5.658577	-13.065000	3181.878418
6.658577	-13.065000	3161.259521
7.658577	-13.065000	3161.150879
8.658577	-13.065000	3159.958008
9.658577	-13.065000	3165.148682
10.658577	-13.065000	3197.641113
11.658577	-13.065000	3103.088623
12.658577	-13.065000	3194.374512
13.658577	-13.065000	3172.325195
14.658577	-13.065000	3163.201416
15.658577	-13.065000	3199.666504
16.658577	-13.065000	3166.103516
17.658577	-13.065000	3161.843506
18.658577	-13.065000	3154.619873
19.658577	-13.065000	3163.135498
20.658577	-13.065000	3156.152588
21.658577	-13.065000	3165.360840
22.658577	-13.065000	3173.827148
23.658577	-13.065000	3163.918213
24.658577	-13.065000	3166.973145
-39.341423	-12.065000	3164.815186
-38.341423	-12.065000	3100.000000
-37.341423	-12.065000	3160.401855
-36.341423	-12.065000	3349.540283
-35.341423	-12.065000	3202.779785
-34.341423	-12.065000	3158.133545
-33.341423	-12.065000	3150.005859
-32.341423	-12.065000	3149.355957
-31.341423	-12.065000	3157.746582
-30.341423	-12.065000	3156.096191
-29.341423	-12.065000	3156.547363
-28.341423	-12.065000	3155.621338
-27.341423	-12.065000	3171.865479
-26.341423	-12.065000	3159.140137
-25.341423	-12.065000	3156.288574
-24.341423	-12.065000	3158.606201
-23.341423	-12.065000	3160.312256
-22.341423	-12.065000	3164.371094
-21.341423	-12.065000	3172.763428
-20.341423	-12.065000	3167.790039
-19.341423	-12.065000	3170.666504
-18.341423	-12.065000	3185.734619
-17.341423	-12.065000	3173.200195
-16.341423	-12.065000	3195.107422
-15.341423	-12.065000	3178.311279
-14.341423	-12.065000	3131.714844
-13.341423	-12.065000	3160.711426
-12.341423	-12.065000	3168.014404
-11.341423	-12.065000	3153.547852
-10.341423	-12.065000	3172.757080
-9.341423	-12.065000	3173.747559
-8.341423	-12.065000	3181.320557
-7.341423	-12.065000	3159.334717
-6.341423	-12.065000	3159.893066
-5.341423	-12.065000	3165.414551
-4.341423	-12.065000	3177.656738
-3.341423	-12.065000	3165.699463
-2.341423	-12.065000	3153.634766
-1.341423	-12.065000	3171.839844
-0.341423	-12.065000	3180.071533
0.658577	-12.065000	3172.214111
1.658577	-12.065000	3174.113770
2.658577	-12.065000	3122.375488
3.658577	-12.065000	3205.910645
4.658577	-12.065000	3172.978027
5.658577	-12.065000	3174.946533
6.658577	-12.065000	3171.267822
7.658577	-12.065000	3158.710205
8.658577	-12.065000	3159.162598
9.658577	-12.065000	3155.888916
10.658577	-12.065000	3350.000000
11.658577	-12.065000	3100.000000
12.658577	-12.065000	3179.322021
13.658577	-12.065000	3243.020752
14.658577	-12.065000	3181.372070
15.658577	-12.065000	3167.087158
16.658577	-12.065000	3160.617432
17.658577	-12.065000	3164.638672
18.658577	-12.065000	3161.455322
19.658577	-12.065000	3165.609131
20.658577	-12.065000	3156.808105
21.658577	-12.065000	3170.166748
22.658577	-12.065000	3176.225342
23.658577	-12.065000	3153.470703
24.658577	-12.065000	3176.797363
-39.341423	-11.065000	3350.000000
-38.341423	-11.065000	3344.090088
-37.341423	-11.065000	3154.813477
-36.341423	-11.065000	3154.568604
-35.341423	-11.065000	3159.556396
-34.341423	-11.065000	3152.202637
-33.341423	-11.065000	3158.162109
-32.341423	-11.065000	3152.557617
-31.341423	-11.065000	3154.634521
-30.341423	-11.065000	3349.995850
-29.341423	-11.065000	3152.987305
-28.341423	-11.065000	3350.000000
-27.341423	-11.065000	3161.998535
-26.341423	-11.065000	3163.368652
-25.341423	-11.065000	3156.379150
-24.341423	-11.065000	3153.601807
-23.341423	-11.065000	3156.563721
-22.341423	-11.065000	3161.852295
-21.341423	-11.065000	3166.810303
-20.341423	-11.065000	3172.610107
-19.341423	-11.065000	3166.658936
-18.341423	-11.065000	3203.993164
-17.341423	-11.065000	3174.271973
-16.341423	-11.065000	3142.382324
-15.341423	-11.065000	3174.844971
-14.341423	-11.065000	3159.939941
-13.341423	-11.065000	3181.534424
-12.341423	-11.065000	3164.725586
-11.341423	-11.065000	3148.047607
-10.341423	-11.065000	3170.280518
-9.341423	-11.065000	3167.549072
-8.341423	-11.065000	3204.747559
-7.341423	-11.065000	3157.667236
-6.341423	-11.065000	3156.522705
-5.341423	-11.065000	3166.334473
-4.341423	-11.065000	3161.758789
-3.341423	-11.065000	3178.305176
-2.341423	-11.065000	3173.409912
-1.341423	-11.065000	3156.989502
-0.341423	-11.065000	3168.763184
0.658577	-11.065000	3155.177490
1.658577	-11.065000	3143.545654
2.658577	-11.065000	3156.639160
3.658577	-11.065000	3172.283936
4.658577	-11.065000	3175.477051
5.658577	-11.065000	3176.021729
6.658577	-11.065000	3173.659912
7.658577	-11.065000	3161.509277
8.658577	-11.065000	3167.964355
9.658577	-11.065000	3177.329834
10.658577	-11.065000	3350.000000
11.658577	-11.065000	3266.608154
12.658577	-11.065000	3166.460449
13.658577	-11.065000	3177.454102
14.658577	-11.065000	3174.067627
15.658577	-11.065000	3169.378662
16.658577	-11.065000	3150.866943
17.658577	-11.065000	3169.529541
18.658577	-11.065000	3160.731445
19.658577	-11.065000	3202.129639
20.658577	-11.065000	3196.969971
21.658577	-11.065000	3189.467773
22.658577	-11.065000	3196.401123
23.658577	-11.065000	3159.462646
24.658577	-11.065000	3159.952881
-39.341423	-10.065000	3349.725342
-38.341423	-10.065000	3157.468750
-37.341423	-10.065000	3268.961914
-36.341423	-10.065000	3161.507324
-35.341423	-10.065000	3342.011230
-34.341423	-10.065000	3159.171143
-33.341423	-10.065000	3155.304688
-32.341423	-10.065000	3350.000000
-31.341423	-10.065000	3155.078125
-30.341423	-10.065000	3228.981689
-29.341423	-10.065000	3303.944336
-28.341423	-10.065000	3277.100342
-27.341423	-10.065000	3350.000000
-26.341423	-10.065000	3160.641602
-25.341423	-10.065000	3160.950195
-24.341423	-10.065000	3173.883789
-23.341423	-10.065000	3159.698730
-22.341423	-10.065000	3187.041748
-21.341423	-10.065000	3165.485596
-20.341423	-10.065000	3164.311035
-19.341423	-10.065000	3165.536377
-18.341423	-10.065000	3165.057861
-17.341423	-10.065000	3158.692627
-16.341423	-10.065000	3160.221436
-15.341423	-10.065000	3162.562012
-14.341423	-10.065000	3155.628174
-13.341423	-10.065000	3158.807373
-12.341423	-10.065000	3162.182129
-11.341423	-10.065000	3162.968994
-10.341423	-10.065000	3156.243164
-9.341423	-10.065000	3155.517334
-8.341423	-10.065000	3174.996094
-7.341423	-10.065000	3172.469971
-6.341423	-10.065000	3233.351318
-5.341423	-10.065000	3218.116455
-4.341423	-10.065000	3177.973633
-3.341423	-10.065000	3210.686768
-2.341423	-10.065000	3190.768066
-1.341423	-10.065000	3167.030762
-0.341423	-10.065000	3168.683594
0.658577	-10.065000	3152.975342
1.658577	-10.065000	3158.073975
2.658577	-10.065000	3169.526855
3.658577	-10.065000	3188.251221
4.658577	-10.065000	3186.475586
5.658577	-10.065000	3168.275879
6.658577	-10.065000	3165.336914
7.658577	-10.065000	3165.701416
8.658577	-10.065000	3157.338379
9.658577	-10.065000	3315.654053
10.658577	-10.065000	3100.000000
11.658577	-10.065000	3117.437744
12.658577	-10.065000	3142.247803
13.658577	-10.065000	3183.089355
14.658577	-10.065000	3191.857666
15.658577	-10.065000	3171.503906
16.658577	-10.065000	3180.640869
17.658577	-10.065000	3163.608887
18.658577	-10.065000	3195.363525
19.658577	-10.065000	3181.870850
20.658577	-10.065000	3177.511963
21.658577	-10.065000	3188.693359
22.658577	-10.065000	3160.009033
23.658577	-10.065000	3171.261475
24.658577	-10.065000	3156.591064
-39.341423	-9.065000	3279.340820
-38.341423	-9.065000	3159.759766
-37.341423	-9.065000	3159.841553
-36.341423	-9.065000	3162.447021
-35.341423	-9.065000	3150.865723
-34.341423	-9.065000	3350.000000
-33.341423	-9.065000	3349.453125
-32.341423	-9.065000	3159.912109
-31.341423	-9.065000	3152.106201
-30.341423	-9.065000	3152.758301
-29.341423	-9.065000	3161.161621
-28.341423	-9.065000	3155.240967
-27.341423	-9.065000	3160.635986
-26.341423	-9.065000	3153.463867
-25.341423	-9.065000	3146.890869
-24.341423	-9.065000	3207.559326
-23.341423	-9.065000	3178.979248
-22.341423	-9.065000	3350.000000
-21.341423	-9.065000	3243.887207
-20.341423	-9.065000	3123.106445
-19.341423	-9.065000	3172.040039
-18.341423	-9.065000	3160.384766
-17.341423	-9.065000	3165.399170
-16.341423	-9.065000	3155.701660
-15.341423	-9.065000	3164.066895
-14.341423	-9.065000	3150.240967
-13.341423	-9.065000	3160.861084
-12.341423	-9.065000	3154.933350
-11.341423	-9.065000	3164.098877
-10.341423	-9.065000	3293.479492
-9.341423	-9.065000	3169.664551
-8.341423	-9.065000	3165.814941
-7.341423	-9.065000	3184.528320
-6.341423	-9.065000	3243.528809
-5.341423	-9.065000	3160.662354
-4.341423	-9.065000	3165.006104
-3.341423	-9.065000	3190.793945
-2.341423	-9.065000	3199.816162
-1.341423	-9.065000	3173.710205
-0.341423	-9.065000	3166.729248
0.658577	-9.065000	3165.074707
1.658577	-9.065000	3181.113281
2.658577	-9.065000	3243.532471
3.658577	-9.065000	3164.886475
4.658577	-9.065000	3167.614990
5.658577	-9.065000	3100.000000
6.658577	-9.065000	3162.511719
7.658577	-9.065000	3167.378906
8.658577	-9.065000	3147.589844
9.658577	-9.065000	3171.947998
10.658577	-9.065000	3225.090332
11.658577	-9.065000	3350.000000
12.658577	-9.065000	3168.241699
13.658577	-9.065000	3156.302734
14.658577	-9.065000	3175.426025
15.658577	-9.065000	3170.283203
16.658577	-9.065000	3174.757568
17.658577	-9.065000	3175.528076
18.658577	-9.065000	3180.543457
19.658577	-9.065000	3170.153564
20.658577	-9.065000	3100.000000
21.658577	-9.065000	3201.887695
22.658577	-9.065000	3157.613525
23.658577	-9.065000	3171.043457
24.658577	-9.065000	3162.720459
-39.341423	-8.065000	3148.871338
-38.341423	-8.065000	3156.765625
-37.341423	-8.065000	3150.988037
-36.341423	-8.065000	3350.000000
-35.341423	-8.065000	3350.000000
-34.341423	-8.065000	3151.769531
-33.341423	-8.065000	3349.438965
-32.341423	-8.065000	3100.000000
-31.341423	-8.065000	3146.671387
-30.341423	-8.065000	3159.408447
-29.341423	-8.065000	3151.870117
-28.341423	-8.065000	3155.575195
-27.341423	-8.065000	3350.000000
-26.341423	-8.065000	3170.766113
-25.341423	-8.065000	3168.960205
-24.341423	-8.065000	3158.082031
-23.341423	-8.065000	3159.487305
-22.341423	-8.065000	3206.307617
-21.341423	-8.065000	3200.453369
-20.341423	-8.065000	3167.773682
-19.341423	-8.065000	3177.976318
-18.341423	-8.065000	3176.221191
-17.341423	-8.065000	3163.482910
-16.341423	-8.065000	3162.916504
-15.341423	-8.065000	3161.208252
-14.341423	-8.065000	3152.885254
-13.341423	-8.065000	3155.746094
-12.341423	-8.065000	3158.004883
-11.341423	-8.065000	3157.312012
-10.341423	-8.065000	3100.000000
-9.341423	-8.065000	3150.000977
-8.341423	-8.065000	3100.036133
-7.341423	-8.065000	3242.066895
-6.341423	-8.065000	3219.382324
-5.341423	-8.065000	3237.177490
-4.341423	-8.065000	3145.190918
-3.341423	-8.065000	3160.555420
-2.341423	-8.065000	3160.930176
-1.341423	-8.065000	3167.316162
-0.341423	-8.065000	3161.019531
0.658577	-8.065000	3138.012451
1.658577	-8.065000	3180.054932
2.658577	-8.065000	3138.045654
3.658577	-8.065000	3175.866211
4.658577	-8.065000	3172.299561
5.658577	-8.065000	3164.894287
6.658577	-8.065000	3164.355957
7.658577	-8.065000	3164.086670
8.658577	-8.065000	3186.174805
9.658577	-8.065000	3189.417725
10.658577	-8.065000	3350.000000
11.658577	-8.065000	3350.000000
12.658577	-8.065000	3186.136230
13.658577	-8.065000	3169.240479
14.658577	-8.065000	3152.051758
15.658577	-8.065000	3176.969971
16.658577	-8.065000	3162.119629
17.658577	-8.065000	3177.611816
18.658577	-8.065000	3172.189697
19.658577	-8.065000	3188.907471
20.658577	-8.065000	3177.735107
21.658577	-8.065000	3183.634277
22.658577	-8.065000	3180.323730
23.658577	-8.065000	3166.402832
24.658577	-8.065000	3187.380859
-39.341423	-7.065000	3152.309326
-38.341423	-7.065000	3101.917236
-37.341423	-7.065000	3159.656006
-36.341423	-7.065000	3154.210693
-35.341423	-7.065000	3164.060303
-34.341423	-7.065000	3160.948242
-33.341423	-7.065000	3152.262207
-32.341423	-7.065000	3159.727539
-31.341423	-7.065000	3160.507324
-30.341423	-7.065000	3162.130127
-29.341423	-7.065000	3156.242432
-28.341423	-7.065000	3163.568848
-27.341423	-7.065000	3147.366943
-26.341423	-7.065000	3167.549316
-25.341423	-7.065000	3164.160645
-24.341423	-7.065000	3161.302734
-23.341423	-7.065000	3169.317383
-22.341423	-7.065000	3170.164795
-21.341423	-7.065000	3183.574219
-20.341423	-7.065000	3180.538818
-19.341423	-7.065000	3160.927734
-18.341423	-7.065000	3168.423340
-17.341423	-7.065000	3162.075439
-16.341423	-7.065000	3162.858154
-15.341423	-7.065000	3153.189453
-14.341423	-7.065000	3153.328369
-13.341423	-7.065000	3156.470947
-12.341423	-7.065000	3161.331055
-11.341423	-7.065000	3168.442871
-10.341423	-7.065000	3159.719727
-9.341423	-7.065000	3159.785156
-8.341423	-7.065000	3161.218750
-7.341423	-7.065000	3173.140869
-6.341423	-7.065000	3235.334229
-5.341423	-7.065000	3304.991211
-4.341423	-7.065000	3100.000000
-3.341423	-7.065000	3169.444580
-2.341423	-7.065000	3169.912842
-1.341423	-7.065000	3179.761230
-0.341423	-7.065000	3350.000000
0.658577	-7.065000	3321.940918
1.658577	-7.065000	3350.000000
2.658577	-7.065000	3168.210938
3.658577	-7.065000	3166.736816
4.658577	-7.065000	3168.152588
5.658577	-7.065000	3165.795654
6.658577	-7.065000	3172.096924
7.658577	-7.065000	3189.908447
8.658577	-7.065000	3131.313477
9.658577	-7.065000	3350.000000
10.658577	-7.065000	3163.114258
11.658577	-7.065000	3191.968750
12.658577	-7.065000	3172.556641
13.658577	-7.065000	3173.987793
14.658577	-7.065000	3166.307373
15.658577	-7.065000	3166.937988
16.658577	-7.065000	3172.099365
17.658577	-7.065000	3168.722900
18.658577	-7.065000	3187.998047
19.658577	-7.065000	3168.970703
20.658577	-7.065000	3169.452637
21.658577	-7.065000	3177.843262
22.658577	-7.065000	3163.323730
23.658577	-7.065000	3173.372070
24.658577	-7.065000	3159.105469
-39.341423	-6.065000	3159.017334
-38.341423	-6.065000	3159.675537
-37.341423	-6.065000	3290.127441
-36.341423	-6.065000	3159.502686
-35.341423	-6.065000	3157.683350
-34.341423	-6.065000	3164.531006
-33.341423	-6.065000	3161.044678
-32.341423	-6.065000	3159.134521
-31.341423	-6.065000	3157.148193
-30.341423	-6.065000	3160.276855
-29.341423	-6.065000	3159.369141
-28.341423	-6.065000	3167.760742
-27.341423	-6.065000	3160.300049
-26.341423	-6.065000	3161.512207
-25.341423	-6.065000	3342.974121
-24.341423	-6.065000	3350.000000
-23.341423	-6.065000	3167.016846
-22.341423	-6.065000	3167.332275
-21.341423	-6.065000	3175.596924
-20.341423	-6.065000	3172.787842
-19.341423	-6.065000	3240.201416
-18.341423	-6.065000	3182.449707
-17.341423	-6.065000	3160.503174
-16.341423	-6.065000	3165.101563
-15.341423	-6.065000	3157.872803
-14.341423	-6.065000	3154.001221
-13.341423	-6.065000	3158.886475
-12.341423	-6.065000	3100.260986
-11.341423	-6.065000	3271.122559
-10.341423	-6.065000	3163.334717
-9.341423	-6.065000	3156.060059
-8.341423	-6.065000	3166.689453
-7.341423	-6.065000	3173.617920
-6.341423	-6.065000	3160.680908
-5.341423	-6.065000	3186.442383
-4.341423	-6.065000	3181.266113
-3.341423	-6.065000	3131.165527
-2.341423	-6.065000	3168.480469
-1.341423	-6.065000	3173.986328
-0.341423	-6.065000	3100.000000
0.658577	-6.065000	3100.000000
1.658577	-6.065000	3100.000000
2.658577	-6.065000	3157.461426
3.658577	-6.065000	3164.945801
4.658577	-6.065000	3163.576660
5.658577	-6.065000	3168.208252
6.658577	-6.065000	3166.440918
7.658577	-6.065000	3163.382324
8.658577	-6.065000	3350.000000
9.658577	-6.065000	3180.448242
10.658577	-6.065000	3165.395752
11.658577	-6.065000	3170.574219
12.658577	-6.065000	3163.588379
13.658577	-6.065000	3163.744873
14.658577	-6.065000	3168.849121
15.658577	-6.065000	3156.922607
16.658577	-6.065000	3156.306641
17.658577	-6.065000	3167.367920
18.658577	-6.065000	3182.006348
19.658577	-6.065000	3180.826416
20.658577	-6.065000	3191.434082
21.658577	-6.065000	3163.394531
22.658577	-6.065000	3175.354004
23.658577	-6.065000	3173.466064
24.658577	-6.065000	3164.339355
-39.341423	-5.065000	3163.127197
-38.341423	-5.065000	3158.247803
-37.341423	-5.065000	3274.893799
-36.341423	-5.065000	3163.746338
-35.341423	-5.065000	3153.049072
-34.341423	-5.065000	3100.460938
-33.341423	-5.065000	3350.000000
-32.341423	-5.065000	3159.776611
-31.341423	-5.065000	3348.891846
-30.341423	-5.065000	3339.556152
-29.341423	-5.065000	3164.291016
-28.341423	-5.065000	3162.887207
-27.341423	-5.065000	3163.958984
-26.341423	-5.065000	3164.575928
-25.341423	-5.065000	3165.518799
-24.341423	-5.065000	3156.496582
-23.341423	-5.065000	3161.814941
-22.341423	-5.065000	3165.088623
-21.341423	-5.065000	3161.310547
-20.341423	-5.065000	3164.675781
-19.341423	-5.065000	3149.004150
-18.341423	-5.065000	3350.000000
-17.341423	-5.065000	3168.406250
-16.341423	-5.065000	3169.763916
-15.341423	-5.065000	3160.259766
-14.341423	-5.065000	3156.825439
-13.341423	-5.065000	3160.190186
-12.341423	-5.065000	3161.043213
-11.341423	-5.065000	3349.972168
-10.341423	-5.065000	3154.980469
-9.341423	-5.065000	3160.495117
-8.341423	-5.065000	3157.014160
-7.341423	-5.065000	3157.877686
-6.341423	-5.065000	3156.661133
-5.341423	-5.065000	3156.584961
-4.341423	-5.065000	3343.359619
-3.341423	-5.065000	3350.000000
-2.341423	-5.065000	3140.956299
-1.341423	-5.065000	3162.357666
-0.341423	-5.065000	3174.877686
0.658577	-5.065000	3168.109863
1.658577	-5.065000	3159.798828
2.658577	-5.065000	3167.802246
3.658577	-5.065000	3138.390137
4.658577	-5.065000	3178.753662
5.658577	-5.065000	3156.451660
6.658577	-5.065000	3170.692627
7.658577	-5.065000	3161.501221
8.658577	-5.065000	3184.165527
9.658577	-5.065000	3160.959717
10.658577	-5.065000	3167.582275
11.658577	-5.065000	3166.017578
12.658577	-5.065000	3159.131592
13.658577	-5.065000	3165.139404
14.658577	-5.065000	3170.801758
15.658577	-5.065000	3162.071777
16.658577	-5.065000	3164.635010
17.658577	-5.065000	3159.520264
18.658577	-5.065000	3175.096924
19.658577	-5.065000	3166.017578
20.658577	-5.065000	3165.226807
21.658577	-5.065000	3166.443115
22.658577	-5.065000	3164.510498
23.658577	-5.065000	3166.520264
24.658577	-5.065000	3180.293457
-39.341423	-4.065000	3100.000000
-38.341423	-4.065000	3156.979736
-37.341423	-4.065000	3162.817871
-36.341423	-4.065000	3158.879150
-35.341423	-4.065000	3158.766113
-34.341423	-4.065000	3292.005859
-33.341423	-4.065000	3350.000000
-32.341423	-4.065000	3350.000000
-31.341423	-4.065000	3170.035156
-30.341423	-4.065000	3163.625977
-29.341423	-4.065000	3157.179932
-28.341423	-4.065000	3149.580566
-27.341423	-4.065000	3161.997314
-26.341423	-4.065000	3159.450195
-25.341423	-4.065000	3162.331299
-24.341423	-4.065000	3170.026367
-23.341423	-4.065000	3161.909424
-22.341423	-4.065000	3164.060547
-21.341423	-4.065000	3159.708252
-20.341423	-4.065000	3165.462402
-19.341423	-4.065000	3182.377930
-18.341423	-4.065000	3156.223877
-17.341423	-4.065000	3165.657959
-16.341423	-4.065000	3167.399414
-15.341423	-4.065000	3159.071045
-14.341423	-4.065000	3156.079590
-13.341423	-4.065000	3350.000000
-12.341423	-4.065000	3158.233398
-11.341423	-4.065000	3165.321533
-10.341423	-4.065000	3171.968506
-9.341423	-4.065000	3167.537354
-8.341423	-4.065000	3100.079346
-7.341423	-4.065000	3166.225586
-6.341423	-4.065000	3157.429688
-5.341423	-4.065000	3158.709961
-4.341423	-4.065000	3178.022705
-3.341423	-4.065000	3350.000000
-2.341423	-4.065000	3350.000000
-1.341423	-4.065000	3181.349121
-0.341423	-4.065000	3150.330566
0.658577	-4.065000	3173.740967
1.658577	-4.065000	3163.155029
2.658577	-4.065000	3350.000000
3.658577	-4.065000	3177.417236
4.658577	-4.065000	3142.155762
5.658577	-4.065000	3177.463135
6.658577	-4.065000	3158.320313
7.658577	-4.065000	3164.220215
8.658577	-4.065000	3154.924805
9.658577	-4.065000	3165.726318
10.658577	-4.065000	3160.573975
11.658577	-4.065000	3176.438965
12.658577	-4.065000	3159.878418
13.658577	-4.065000	3162.977295
14.658577	-4.065000	3165.101807
15.658577	-4.065000	3160.409424
16.658577	-4.065000	3171.380615
17.658577	-4.065000	3175.308105
18.658577	-4.065000	3166.289307
19.658577	-4.065000	3171.025146
20.658577	-4.065000	3160.093506
21.658577	-4.065000	3167.132813
22.658577	-4.065000	3176.308105
23.658577	-4.065000	3173.525391
24.658577	-4.065000	3173.059326
-39.341423	-3.065000	3349.684326
-38.341423	-3.065000	3100.000000
-37.341423	-3.065000	3156.666992
-36.341423	-3.065000	3162.577881
-35.341423	-3.065000	3155.720703
-34.341423	-3.065000	3161.678711
-33.341423	-3.065000	3166.053955
-32.341423	-3.065000	3190.137939
-31.341423	-3.065000	3167.638184
-30.341423	-3.065000	3350.000000
-29.341423	-3.065000	3214.374268
-28.341423	-3.065000	3180.619873
-27.341423	-3.065000	3171.642822
-26.341423	-3.065000	3155.026855
-25.341423	-3.065000	3141.017578
-24.341423	-3.065000	3158.284912
-23.341423	-3.065000	3173.576660
-22.341423	-3.065000	3165.723145
-21.341423	-3.065000	3157.862793
-20.341423	-3.065000	3168.343018
-19.341423	-3.065000	3165.158447
-18.341423	-3.065000	3161.884033
-17.341423	-3.065000	3165.879883
-16.341423	-3.065000	3145.933594
-15.341423	-3.065000	3157.737549
-14.341423	-3.065000	3162.352539
-13.341423	-3.065000	3153.195801
-12.341423	-3.065000	3167.713623
-11.341423	-3.065000	3151.912354
-10.341423	-3.065000	3153.587158
-9.341423	-3.065000	3165.032227
-8.341423	-3.065000	3160.991455
-7.341423	-3.065000	3167.688477
-6.341423	-3.065000	3164.859863
-5.341423	-3.065000	3174.935059
-4.341423	-3.065000	3182.291504
-3.341423	-3.065000	3166.995361
-2.341423	-3.065000	3156.559570
-1.341423	-3.065000	3350.000000
-0.341423	-3.065000	3350.000000
0.658577	-3.065000	3164.696289
1.658577	-3.065000	3179.082031
2.658577	-3.065000	3102.734619
3.658577	-3.065000	3168.282471
4.658577	-3.065000	3161.108154
5.658577	-3.065000	3151.039551
6.658577	-3.065000	3161.418457
7.658577	-3.065000	3173.841553
8.658577	-3.065000	3160.199219
9.658577	-3.065000	3169.931396
10.658577	-3.065000	3164.556885
11.658577	-3.065000	3157.427979
12.658577	-3.065000	3348.253418
13.658577	-3.065000	3300.123535
14.658577	-3.065000	3155.723633
15.658577	-3.065000	3156.703613
16.658577	-3.065000	3158.269531
17.658577	-3.065000	3161.212891
18.658577	-3.065000	3172.343018
19.658577	-3.065000	3162.889893
20.658577	-3.065000	3162.317871
21.658577	-3.065000	3172.706787
22.658577	-3.065000	3140.717529
23.658577	-3.065000	3167.601318
24.658577	-3.065000	3169.729492
-39.341423	-2.065000	3197.509033
-38.341423	-2.065000	3167.221924
-37.341423	-2.065000	3167.933105
-36.341423	-2.065000	3148.244873
-35.341423	-2.065000	3169.233887
-34.341423	-2.065000	3150.707031
-33.341423	-2.065000	3154.433105
-32.341423	-2.065000	3191.639648
-31.341423	-2.065000	3166.135498
-30.341423	-2.065000	3157.887451
-29.341423	-2.065000	3350.000000
-28.341423	-2.065000	3339.290039
-27.341423	-2.065000	3182.402344
-26.341423	-2.065000	3162.997803
-25.341423	-2.065000	3339.676514
-24.341423	-2.065000	3167.322754
-23.341423	-2.065000	3268.109131
-22.341423	-2.065000	3164.228516
-21.341423	-2.065000	3159.693848
-20.341423	-2.065000	3172.591797
-19.341423	-2.065000	3167.510742
-18.341423	-2.065000	3189.351807
-17.341423	-2.065000	3183.089355
-16.341423	-2.065000	3159.557861
-15.341423	-2.065000	3162.458984
-14.341423	-2.065000	3155.539551
-13.341423	-2.065000	3152.770752
-12.341423	-2.065000	3158.678223
-11.341423	-2.065000	3148.723145
-10.341423	-2.065000	3157.270508
-9.341423	-2.065000	3153.994629
-8.341423	-2.065000	3163.907227
-7.341423	-2.065000	3170.631592
-6.341423	-2.065000	3171.010742
-5.341423	-2.065000	3156.911377
-4.341423	-2.065000	3168.994385
-3.341423	-2.065000	3163.676270
-2.341423	-2.065000	3163.835205
-1.341423	-2.065000	3152.624756
-0.341423	-2.065000	3348.611816
0.658577	-2.065000	3158.328369
1.658577	-2.065000	3167.299072
2.658577	-2.065000	3159.107422
3.658577	-2.065000	3178.449463
4.658577	-2.065000	3179.478760
5.658577	-2.065000	3160.532227
6.658577	-2.065000	3164.966553
7.658577	-2.065000	3170.280029
8.658577	-2.065000	3164.094238
9.658577	-2.065000	3165.979980
10.658577	-2.065000	3184.115479
11.658577	-2.065000	3166.407471
12.658577	-2.065000	3158.042969
13.658577	-2.065000	3350.000000
14.658577	-2.065000	3257.731201
15.658577	-2.065000	3164.900391
16.658577	-2.065000	3163.727295
17.658577	-2.065000	3164.372803
18.658577	-2.065000	3168.531494
19.658577	-2.065000	3177.979980
20.658577	-2.065000	3167.586182
21.658577	-2.065000	3262.511719
22.658577	-2.065000	3194.580078
23.658577	-2.065000	3176.756836
24.658577	-2.065000	3198.653564
-39.341423	-1.065000	3248.513916
-38.341423	-1.065000	3298.854492
-37.341423	-1.065000	3172.321289
-36.341423	-1.065000	3166.928223
-35.341423	-1.065000	3139.276123
-34.341423	-1.065000	3174.301270
-33.341423	-1.065000	3167.073242
-32.341423	-1.065000	3171.814697
-31.341423	-1.065000	3164.262207
-30.341423	-1.065000	3164.265869
-29.341423	-1.065000	3174.388916
-28.341423	-1.065000	3350.000000
-27.341423	-1.065000	3226.250000
-26.341423	-1.065000	3167.549561
-25.341423	-1.065000	3158.937744
-24.341423	-1.065000	3158.958252
-23.341423	-1.065000	3167.886719
-22.341423	-1.065000	3159.770996
-21.341423	-1.065000	3168.872314
-20.341423	-1.065000	3146.863770
-19.341423	-1.065000	3162.554932
-18.341423	-1.065000	3151.671143
-17.341423	-1.065000	3154.166504
-16.341423	-1.065000	3183.788086
-15.341423	-1.065000	3155.642578
-14.341423	-1.065000	3158.710938
-13.341423	-1.065000	3160.899170
-12.341423	-1.065000	3167.746338
-11.341423	-1.065000	3163.473633
-10.341423	-1.065000	3157.766113
-9.341423	-1.065000	3166.852051
-8.341423	-1.065000	3147.966064
-7.341423	-1.065000	3162.172363
-6.341423	-1.065000	3169.487061
-5.341423	-1.065000	3166.590820
-4.341423	-1.065000	3164.246094
-3.341423	-1.065000	3177.998779
-2.341423	-1.065000	3342.945801
-1.341423	-1.065000	3275.709473
-0.341423	-1.065000	3350.000000
0.658577	-1.065000	3163.404541
1.658577	-1.065000	3158.015625
2.658577	-1.065000	3167.857178
3.658577	-1.065000	3155.626709
4.658577	-1.065000	3185.249268
5.658577	-1.065000	3163.437012
6.658577	-1.065000	3165.313965
7.658577	-1.065000	3167.245605
8.658577	-1.065000	3173.195557
9.658577	-1.065000	3169.340820
10.658577	-1.065000	3152.632813
11.658577	-1.065000	3175.133545
12.658577	-1.065000	3160.137207
13.658577	-1.065000	3152.296875
14.658577	-1.065000	3156.238770
15.658577	-1.065000	3170.274170
16.658577	-1.065000	3159.429932
17.658577	-1.065000	3161.092529
18.658577	-1.065000	3161.097412
19.658577	-1.065000	3168.749756
20.658577	-1.065000	3160.915527
21.658577	-1.065000	3156.841309
22.658577	-1.065000	3173.102051
23.658577	-1.065000	3159.787598
24.658577	-1.065000	3168.528564
-39.341423	-0.065000	3196.749512
-38.341423	-0.065000	3226.627197
-37.341423	-0.065000	3113.425293
-36.341423	-0.065000	3215.194092
-35.341423	-0.065000	3244.338867
-34.341423	-0.065000	3175.104492
-33.341423	-0.065000	3169.804199
-32.341423	-0.065000	3141.875244
-31.341423	-0.065000	3100.000000
-30.341423	-0.065000	3100.000000
-29.341423	-0.065000	3108.502930
-28.341423	-0.065000	3100.000000
-27.341423	-0.065000	3350.000000
-26.341423	-0.065000	3178.576172
-25.341423	-0.065000	3157.813477
-24.341423	-0.065000	3151.735840
-23.341423	-0.065000	3158.230957
-22.341423	-0.065000	3174.141357
-21.341423	-0.065000	3162.055176
-20.341423	-0.065000	3167.322754
-19.341423	-0.065000	3154.793457
-18.341423	-0.065000	3168.504883
-17.341423	-0.065000	3155.893555
-16.341423	-0.065000	3172.663086
-15.341423	-0.065000	3181.827881
-14.341423	-0.065000	3155.281738
-13.341423	-0.065000	3151.599365
-12.341423	-0.065000	3160.021729
-11.341423	-0.065000	3153.592529
-10.341423	-0.065000	3154.938965
-9.341423	-0.065000	3173.417725
-8.341423	-0.065000	3156.313477
-7.341423	-0.065000	3162.748047
-6.341423	-0.065000	3159.840088
-5.341423	-0.065000	3163.737305
-4.341423	-0.065000	3159.417969
-3.341423	-0.065000	3159.179932
-2.341423	-0.065000	3162.380127
-1.341423	-0.065000	3158.572998
-0.341423	-0.065000	3349.464111
0.658577	-0.065000	3267.908203
1.658577	-0.065000	3163.971436
2.658577	-0.065000	3165.415283
3.658577	-0.065000	3189.750488
4.658577	-0.065000	3166.297363
5.658577	-0.065000	3164.230713
6.658577	-0.065000	3165.834473
7.658577	-0.065000	3167.901123
8.658577	-0.065000	3162.889893
9.658577	-0.065000	3156.788086
10.658577	-0.065000	3159.098145
11.658577	-0.065000	3160.454590
12.658577	-0.065000	3350.000000
13.658577	-0.065000	3318.550781
14.658577	-0.065000	3166.226074
15.658577	-0.065000	3159.718506
16.658577	-0.065000	3152.737793
17.658577	-0.065000	3147.305664
18.658577	-0.065000	3177.531982
19.658577	-0.065000	3173.103271
20.658577	-0.065000	3159.623291
21.658577	-0.065000	3158.721436
22.658577	-0.065000	3165.736328
23.658577	-0.065000	3177.105469
24.658577	-0.065000	3158.989014
-39.341423	0.935000	3240.325684
-38.341423	0.935000	3254.580811
-37.341423	0.935000	3244.864014
-36.341423	0.935000	3222.378174
-35.341423	0.935000	3146.917480
-34.341423	0.935000	3186.885742
-33.341423	0.935000	3171.453125
-32.341423	0.935000	3162.904053
-31.341423	0.935000	3165.820313
-30.341423	0.935000	3200.599365
-29.341423	0.935000	3225.500000
-28.341423	0.935000	3106.183838
-27.341423	0.935000	3205.959961
-26.341423	0.935000	3144.965088
-25.341423	0.935000	3250.935303
-24.341423	0.935000	3153.061523
-23.341423	0.935000	3160.969482
-22.341423	0.935000	3165.215332
-21.341423	0.935000	3169.787598
-20.341423	0.935000	3160.113281
-19.341423	0.935000	3173.165283
-18.341423	0.935000	3171.106445
-17.341423	0.935000	3166.817871
-16.341423	0.935000	3180.211182
-15.341423	0.935000	3156.504395
-14.341423	0.935000	3287.117432
-13.341423	0.935000	3156.915771
-12.341423	0.935000	3266.331543
-11.341423	0.935000	3350.000000
-10.341423	0.935000	3159.606201
-9.341423	0.935000	3158.563965
-8.341423	0.935000	3170.584229
-7.341423	0.935000	3159.841309
-6.341423	0.935000	3164.953857
-5.341423	0.935000	3337.177246
-4.341423	0.935000	3159.319824
-3.341423	0.935000	3171.712646
-2.341423	0.935000	3160.347900
-1.341423	0.935000	3159.194824
-0.341423	0.935000	3158.267090
0.658577	0.935000	3156.691895
1.658577	0.935000	3166.883545
2.658577	0.935000	3153.351807
3.658577	0.935000	3168.270264
4.658577	0.935000	3175.768311
5.658577	0.935000	3163.318604
6.658577	0.935000	3343.111572
7.658577	0.935000	3156.949951
8.658577	0.935000	3165.012695
9.658577	0.935000	3159.147705
10.658577	0.935000	3157.578613
11.658577	0.935000	3156.763184
12.658577	0.935000	3170.533447
13.658577	0.935000	3160.384277
14.658577	0.935000	3163.959961
15.658577	0.935000	3166.625732
16.658577	0.935000	3160.260498
17.658577	0.935000	3162.794434
18.658577	0.935000	3168.615967
19.658577	0.935000	3173.137207
20.658577	0.935000	3161.727539
21.658577	0.935000	3160.300049
22.658577	0.935000	3155.639404
23.658577	0.935000	3167.067871
24.658577	0.935000	3180.695557
-39.341423	1.935000	3173.221680
-38.341423	1.935000	3176.091309
-37.341423	1.935000	3163.977539
-36.341423	1.935000	3169.280762
-35.341423	1.935000	3160.229736
-34.341423	1.935000	3168.129150
-33.341423	1.935000	3174.356201
-32.341423	1.935000	3167.112549
-31.341423	1.935000	3162.589844
-30.341423	1.935000	3170.826904
-29.341423	1.935000	3174.073730
-28.341423	1.935000	3114.573242
-27.341423	1.935000	3187.932373
-26.341423	1.935000	3176.381836
-25.341423	1.935000	3350.000000
-24.341423	1.935000	3180.277588
-23.341423	1.935000	3154.836670
-22.341423	1.935000	3158.060791
-21.341423	1.935000	3159.928711
-20.341423	1.935000	3162.066162
-19.341423	1.935000	3161.807129
-18.341423	1.935000	3182.414551
-17.341423	1.935000	3335.263916
-16.341423	1.935000	3206.223633
-15.341423	1.935000	3137.078613
-14.341423	1.935000	3163.020264
-13.341423	1.935000	3163.547607
-12.341423	1.935000	3350.000000
-11.341423	1.935000	3160.075928
-10.341423	1.935000	3151.785645
-9.341423	1.935000	3147.669678
-8.341423	1.935000	3167.322754
-7.341423	1.935000	3158.765625
-6.341423	1.935000	3161.915771
-5.341423	1.935000	3159.729736
-4.341423	1.935000	3327.680908
-3.341423	1.935000	3160.314697
-2.341423	1.935000	3158.103027
-1.341423	1.935000	3160.187012
-0.341423	1.935000	3155.477051
0.658577	1.935000	3164.845947
1.658577	1.935000	3157.461914
2.658577	1.935000	3182.472412
3.658577	1.935000	3178.409424
4.658577	1.935000	3184.287598
5.658577	1.935000	3161.767090
6.658577	1.935000	3160.698242
7.658577	1.935000	3159.471680
8.658577	1.935000	3160.539551
9.658577	1.935000	3350.000000
10.658577	1.935000	3150.544678
11.658577	1.935000	3157.480713
12.658577	1.935000	3350.000000
13.658577	1.935000	3100.033447
14.658577	1.935000	3166.945068
15.658577	1.935000	3165.905762
16.658577	1.935000	3165.514160
17.658577	1.935000	3165.792236
18.658577	1.935000	3158.448975
19.658577	1.935000	3154.996826
20.658577	1.935000	3153.366455
21.658577	1.935000	3153.688477
22.658577	1.935000	3164.583740
23.658577	1.935000	3166.816162
24.658577	1.935000	3164.908447
-39.341423	2.935000	3100.000000
-38.341423	2.935000	3159.405273
-37.341423	2.935000	3168.523682
-36.341423	2.935000	3158.698486
-35.341423	2.935000	3164.508301
-34.341423	2.935000	3157.497070
-33.341423	2.935000	3164.564941
-32.341423	2.935000	3159.087646
-31.341423	2.935000	3167.350830
-30.341423	2.935000	3163.401855
-29.341423	2.935000	3165.481201
-28.341423	2.935000	3172.192871
-27.341423	2.935000	3159.229248
-26.341423	2.935000	3165.760986
-25.341423	2.935000	3165.050293
-24.341423	2.935000	3172.307617
-23.341423	2.935000	3171.181152
-22.341423	2.935000	3162.543457
-21.341423	2.935000	3156.883545
-20.341423	2.935000	3153.035645
-19.341423	2.935000	3156.816895
-18.341423	2.935000	3179.489502
-17.341423	2.935000	3100.000000
-16.341423	2.935000	3100.000000
-15.341423	2.935000	3239.351807
-14.341423	2.935000	3163.236084
-13.341423	2.935000	3164.049316
-12.341423	2.935000	3162.868896
-11.341423	2.935000	3163.375732
-10.341423	2.935000	3346.982422
-9.341423	2.935000	3168.977051
-8.341423	2.935000	3170.429932
-7.341423	2.935000	3152.369385
-6.341423	2.935000	3163.527832
-5.341423	2.935000	3349.321533
-4.341423	2.935000	3347.624023
-3.341423	2.935000	3159.055908
-2.341423	2.935000	3350.000000
-1.341423	2.935000	3166.337891
-0.341423	2.935000	3162.934570
0.658577	2.935000	3168.173340
1.658577	2.935000	3165.669434
2.658577	2.935000	3180.763428
3.658577	2.935000	3160.356934
4.658577	2.935000	3165.221924
5.658577	2.935000	3150.351318
6.658577	2.935000	3174.569336
7.658577	2.935000	3185.887207
8.658577	2.935000	3160.152344
9.658577	2.935000	3154.660400
10.658577	2.935000	3349.306396
11.658577	2.935000	3160.187012
12.658577	2.935000	3161.441650
13.658577	2.935000	3350.000000
14.658577	2.935000	3163.008789
15.658577	2.935000	3160.446289
16.658577	2.935000	3167.154785
17.658577	2.935000	3159.983398
18.658577	2.935000	3140.835693
19.658577	2.935000	3185.978027
20.658577	2.935000	3144.396484
21.658577	2.935000	3160.663086
22.658577	2.935000	3163.853760
23.658577	2.935000	3159.205322
24.658577	2.935000	3140.412109
-39.341423	3.935000	3162.572998
-38.341423	3.935000	3165.341309
-37.341423	3.935000	3163.347168
-36.341423	3.935000	3167.437256
-35.341423	3.935000	3159.663574
-34.341423	3.935000	3152.746826
-33.341423	3.935000	3154.553223
-32.341423	3.935000	3166.393066
-31.341423	3.935000	3173.773926
-30.341423	3.935000	3158.825195
-29.341423	3.935000	3168.987793
-28.341423	3.935000	3160.535156
-27.341423	3.935000	3162.697754
-26.341423	3.935000	3158.001465
-25.341423	3.935000	3158.746094
-24.341423	3.935000	3160.677490
-23.341423	3.935000	3179.160645
-22.341423	3.935000	3161.191406
-21.341423	3.935000	3349.219238
-20.341423	3.935000	3162.799805
-19.341423	3.935000	3173.734863
-18.341423	3.935000	3147.980225
-17.341423	3.935000	3155.490967
-16.341423	3.935000	3104.032227
-15.341423	3.935000	3142.508789
-14.341423	3.935000	3239.013184
-13.341423	3.935000	3190.813721
-12.341423	3.935000	3166.788574
-11.341423	3.935000	3349.808594
-10.341423	3.935000	3163.625244
-9.341423	3.935000	3169.443115
-8.341423	3.935000	3165.726318
-7.341423	3.935000	3169.448975
-6.341423	3.935000	3146.873779
-5.341423	3.935000	3161.639160
-4.341423	3.935000	3169.188965
-3.341423	3.935000	3169.300537
-2.341423	3.935000	3154.270020
-1.341423	3.935000	3350.000000
-0.341423	3.935000	3303.531738
0.658577	3.935000	3159.185303
1.658577	3.935000	3164.085693
2.658577	3.935000	3154.483887
3.658577	3.935000	3162.584961
4.658577	3.935000	3165.377930
5.658577	3.935000	3166.887939
6.658577	3.935000	3167.408447
7.658577	3.935000	3162.134033
8.658577	3.935000	3161.495850
9.658577	3.935000	3162.160645
10.658577	3.935000	3165.835449
11.658577	3.935000	3163.084229
12.658577	3.935000	3161.816650
13.658577	3.935000	3152.018799
14.658577	3.935000	3162.042725
15.658577	3.935000	3162.365723
16.658577	3.935000	3161.186523
17.658577	3.935000	3171.894531
18.658577	3.935000	3349.854004
19.658577	3.935000	3349.369385
20.658577	3.935000	3346.446777
21.658577	3.935000	3164.540771
22.658577	3.935000	3160.206299
23.658577	3.935000	3157.194092
24.658577	3.935000	3164.234131
-39.341423	4.935000	3349.846924
-38.341423	4.935000	3169.274170
-37.341423	4.935000	3320.688232
-36.341423	4.935000	3162.641113
-35.341423	4.935000	3165.342041
-34.341423	4.935000	3156.980225
-33.341423	4.935000	3158.281494
-32.341423	4.935000	3163.586182
-31.341423	4.935000	3164.291016
-30.341423	4.935000	3158.348633
-29.341423	4.935000	3170.282227
-28.341423	4.935000	3177.822998
-27.341423	4.935000	3168.557373
-26.341423	4.935000	3180.234375
-25.341423	4.935000	3162.716064
-24.341423	4.935000	3100.098389
-23.341423	4.935000	3162.001709
-22.341423	4.935000	3156.592773
-21.341423	4.935000	3166.324219
-20.341423	4.935000	3149.658447
-19.341423	4.935000	3152.967041
-18.341423	4.935000	3159.629150
-17.341423	4.935000	3157.708252
-16.341423	4.935000	3151.145020
-15.341423	4.935000	3154.093750
-14.341423	4.935000	3167.463623
-13.341423	4.935000	3175.690430
-12.341423	4.935000	3157.049805
-11.341423	4.935000	3155.937744
-10.341423	4.935000	3170.765137
-9.341423	4.935000	3164.160645
-8.341423	4.935000	3165.937988
-7.341423	4.935000	3158.923340
-6.341423	4.935000	3154.781982
-5.341423	4.935000	3148.717529
-4.341423	4.935000	3186.586426
-3.341423	4.935000	3350.000000
-2.341423	4.935000	3261.423584
-1.341423	4.935000	3160.177490
-0.341423	4.935000	3318.451416
0.658577	4.935000	3348.623291
1.658577	4.935000	3161.716064
2.658577	4.935000	3161.234375
3.658577	4.935000	3173.539063
4.658577	4.935000	3168.100098
5.658577	4.935000	3161.798340
6.658577	4.935000	3350.000000
7.658577	4.935000	3152.117432
8.658577	4.935000	3162.756836
9.658577	4.935000	3163.019531
10.658577	4.935000	3155.043457
11.658577	4.935000	3160.992432
12.658577	4.935000	3158.650391
13.658577	4.935000	3157.571289
14.658577	4.935000	3169.427002
15.658577	4.935000	3274.681885
16.658577	4.935000	3166.882568
17.658577	4.935000	3161.320801
18.658577	4.935000	3343.797119
19.658577	4.935000	3350.000000
20.658577	4.935000	3157.415527
21.658577	4.935000	3155.564697
22.658577	4.935000	3350.000000
23.658577	4.935000	3156.225586
24.658577	4.935000	3166.778564
-39.341423	5.935000	3159.693359
-38.341423	5.935000	3150.074951
-37.341423	5.935000	3350.000000
-36.341423	5.935000	3155.918457
-35.341423	5.935000	3155.335938
-34.341423	5.935000	3143.663574
-33.341423	5.935000	3140.720215
-32.341423	5.935000	3154.604248
-31.341423	5.935000	3165.848389
-30.341423	5.935000	3179.094727
-29.341423	5.935000	3165.169434
-28.341423	5.935000	3163.296387
-27.341423	5.935000	3180.300049
-26.341423	5.935000	3162.864746
-25.341423	5.935000	3160.933838
-24.341423	5.935000	3158.489014
-23.341423	5.935000	3160.905762
-22.341423	5.935000	3175.655762
-21.341423	5.935000	3162.653564
-20.341423	5.935000	3153.244385
-19.341423	5.935000	3350.000000
-18.341423	5.935000	3155.453125
-17.341423	5.935000	3307.722656
-16.341423	5.935000	3149.142822
-15.341423	5.935000	3154.917969
-14.341423	5.935000	3162.195801
-13.341423	5.935000	3155.438721
-12.341423	5.935000	3169.708252
-11.341423	5.935000	3170.817139
-10.341423	5.935000	3167.274414
-9.341423	5.935000	3100.158936
-8.341423	5.935000	3167.793701
-7.341423	5.935000	3162.125977
-6.341423	5.935000	3155.963867
-5.341423	5.935000	3163.677490
-4.341423	5.935000	3111.041504
-3.341423	5.935000	3163.152588
-2.341423	5.935000	3152.891602
-1.341423	5.935000	3152.622803
-0.341423	5.935000	3161.056152
0.658577	5.935000	3350.000000
1.658577	5.935000	3346.611084
2.658577	5.935000	3165.419922
3.658577	5.935000	3177.478271
4.658577	5.935000	3165.976563
5.658577	5.935000	3170.313965
6.658577	5.935000	3165.239014
7.658577	5.935000	3159.651123
8.658577	5.935000	3158.272705
9.658577	5.935000	3163.137695
10.658577	5.935000	3164.918213
11.658577	5.935000	3161.313232
12.658577	5.935000	3166.755615
13.658577	5.935000	3168.242920
14.658577	5.935000	3161.447754
15.658577	5.935000	3268.950928
16.658577	5.935000	3157.497803
17.658577	5.935000	3171.783691
18.658577	5.935000	3161.731689
19.658577	5.935000	3162.464600
20.658577	5.935000	3153.469482
21.658577	5.935000	3161.268799
22.658577	5.935000	3163.204834
23.658577	5.935000	3157.277344
24.658577	5.935000	3159.281738
-39.341423	6.935000	3161.166748
-38.341423	6.935000	3350.000000
-37.341423	6.935000	3151.537354
-36.341423	6.935000	3349.030518
-35.341423	6.935000	3153.131348
-34.341423	6.935000	3151.396240
-33.341423	6.935000	3146.395264
-32.341423	6.935000	3166.418457
-31.341423	6.935000	3158.656982
-30.341423	6.935000	3157.289307
-29.341423	6.935000	3152.765625
-28.341423	6.935000	3207.165527
-27.341423	6.935000	3158.472656
-26.341423	6.935000	3169.520020
-25.341423	6.935000	3161.358643
-24.341423	6.935000	3336.291992
-23.341423	6.935000	3163.303711
-22.341423	6.935000	3169.960205
-21.341423	6.935000	3163.532959
-20.341423	6.935000	3325.157715
-19.341423	6.935000	3350.000000
-18.341423	6.935000	3151.767822
-17.341423	6.935000	3161.529053
-16.341423	6.935000	3154.513916
-15.341423	6.935000	3156.827393
-14.341423	6.935000	3159.136719
-13.341423	6.935000	3162.895264
-12.341423	6.935000	3160.923584
-11.341423	6.935000	3169.006836
-10.341423	6.935000	3172.404785
-9.341423	6.935000	3163.863525
-8.341423	6.935000	3171.761475
-7.341423	6.935000	3161.067383
-6.341423	6.935000	3154.708008
-5.341423	6.935000	3164.720703
-4.341423	6.935000	3166.340820
-3.341423	6.935000	3158.485352
-2.341423	6.935000	3164.864014
-1.341423	6.935000	3277.714111
-0.341423	6.935000	3162.782471
0.658577	6.935000	3347.897217
1.658577	6.935000	3162.558350
2.658577	6.935000	3165.119385
3.658577	6.935000	3187.455322
4.658577	6.935000	3163.776367
5.658577	6.935000	3163.214844
6.658577	6.935000	3166.516846
7.658577	6.935000	3155.109375
8.658577	6.935000	3167.382324
9.658577	6.935000	3167.474609
10.658577	6.935000	3316.496582
11.658577	6.935000	3166.469238
12.658577	6.935000	3160.677979
13.658577	6.935000	3162.768799
14.658577	6.935000	3170.000000
15.658577	6.935000	3156.727051
16.658577	6.935000	3165.463623
17.658577	6.935000	3141.799316
18.658577	6.935000	3163.093018
19.658577	6.935000	3157.308350
20.658577	6.935000	3163.227783
21.658577	6.935000	3163.725586
22.658577	6.935000	3161.909424
23.658577	6.935000	3158.149658
24.658577	6.935000	3157.616455
-39.341423	7.935000	3164.291748
-38.341423	7.935000	3157.090088
-37.341423	7.935000	3155.487549
-36.341423	7.935000	3161.573242
-35.341423	7.935000	3147.977295
-34.341423	7.935000	3151.928467
-33.341423	7.935000	3156.353760
-32.341423	7.935000	3160.642822
-31.341423	7.935000	3154.519287
-30.341423	7.935000	3158.417236
-29.341423	7.935000	3158.078613
-28.341423	7.935000	3176.014893
-27.341423	7.935000	3165.021240
-26.341423	7.935000	3165.490967
-25.341423	7.935000	3157.767822
-24.341423	7.935000	3177.782959
-23.341423	7.935000	3164.278809
-22.341423	7.935000	3167.246338
-21.341423	7.935000	3169.246826
-20.341423	7.935000	3163.135254
-19.341423	7.935000	3165.707520
-18.341423	7.935000	3162.856934
-17.341423	7.935000	3159.684814
-16.341423	7.935000	3164.317383
-15.341423	7.935000	3158.701904
-14.341423	7.935000	3156.618652
-13.341423	7.935000	3152.585693
-12.341423	7.935000	3158.494629
-11.341423	7.935000	3163.503174
-10.341423	7.935000	3177.559082
-9.341423	7.935000	3180.038330
-8.341423	7.935000	3178.415039
-7.341423	7.935000	3163.193115
-6.341423	7.935000	3164.354980
-5.341423	7.935000	3164.887695
-4.341423	7.935000	3166.844238
-3.341423	7.935000	3162.424561
-2.341423	7.935000	3350.000000
-1.341423	7.935000	3154.502930
-0.341423	7.935000	3150.538818
0.658577	7.935000	3349.979248
1.658577	7.935000	3166.118164
2.658577	7.935000	3158.501221
3.658577	7.935000	3166.437012
4.658577	7.935000	3154.973389
5.658577	7.935000	3186.126465
6.658577	7.935000	3186.298340
7.658577	7.935000	3176.927246
8.658577	7.935000	3166.922852
9.658577	7.935000	3162.579346
10.658577	7.935000	3322.191406
11.658577	7.935000	3167.157715
12.658577	7.935000	3277.782715
13.658577	7.935000	3156.254883
14.658577	7.935000	3161.963379
15.658577	7.935000	3164.136963
16.658577	7.935000	3164.022949
17.658577	7.935000	3156.591797
18.658577	7.935000	3162.233398
19.658577	7.935000	3173.253174
20.658577	7.935000	3177.157227
21.658577	7.935000	3100.000000
22.658577	7.935000	3168.847656
23.658577	7.935000	3160.393311
24.658577	7.935000	3161.729248
-39.341423	8.935000	3350.000000
-38.341423	8.935000	3282.596924
-37.341423	8.935000	3164.252930
-36.341423	8.935000	3149.696045
-35.341423	8.935000	3160.297119
-34.341423	8.935000	3160.437012
-33.341423	8.935000	3162.031494
-32.341423	8.935000	3160.426758
-31.341423	8.935000	3154.289551
-30.341423	8.935000	3160.704102
-29.341423	8.935000	3161.604492
-28.341423	8.935000	3158.958496
-27.341423	8.935000	3165.532715
-26.341423	8.935000	3168.753418
-25.341423	8.935000	3165.802979
-24.341423	8.935000	3165.248291
-23.341423	8.935000	3170.482422
-22.341423	8.935000	3157.429688
-21.341423	8.935000	3165.816162
-20.341423	8.935000	3162.997803
-19.341423	8.935000	3172.363281
-18.341423	8.935000	3157.934570
-17.341423	8.935000	3157.265381
-16.341423	8.935000	3155.039063
-15.341423	8.935000	3102.597412
-14.341423	8.935000	3158.768066
-13.341423	8.935000	3155.294189
-12.341423	8.935000	3164.527588
-11.341423	8.935000	3164.646729
-10.341423	8.935000	3180.417969
-9.341423	8.935000	3183.642578
-8.341423	8.935000	3184.554932
-7.341423	8.935000	3175.138184
-6.341423	8.935000	3162.202393
-5.341423	8.935000	3154.099121
-4.341423	8.935000	3161.185059
-3.341423	8.935000	3166.881348
-2.341423	8.935000	3166.110596
-1.341423	8.935000	3341.767822
-0.341423	8.935000	3348.488281
0.658577	8.935000	3338.056152
1.658577	8.935000	3162.894531
2.658577	8.935000	3153.583984
3.658577	8.935000	3193.305420
4.658577	8.935000	3167.983154
5.658577	8.935000	3170.212402
6.658577	8.935000	3183.205078
7.658577	8.935000	3186.849609
8.658577	8.935000	3190.588135
9.658577	8.935000	3173.309326
10.658577	8.935000	3173.190186
11.658577	8.935000	3185.773193
12.658577	8.935000	3169.056152
13.658577	8.935000	3170.305664
14.658577	8.935000	3168.794434
15.658577	8.935000	3148.670654
16.658577	8.935000	3148.189209
17.658577	8.935000	3161.684814
18.658577	8.935000	3212.022705
19.658577	8.935000	3350.000000
20.658577	8.935000	3114.581787
21.658577	8.935000	3186.735596
22.658577	8.935000	3171.809082
23.658577	8.935000	3181.579346
24.658577	8.935000	3164.397461
-39.341423	9.935000	3146.936035
-38.341423	9.935000	3150.064453
-37.341423	9.935000	3151.946045
-36.341423	9.935000	3149.606445
-35.341423	9.935000	3147.371826
-34.341423	9.935000	3350.000000
-33.341423	9.935000	3159.435791
-32.341423	9.935000	3350.000000
-31.341423	9.935000	3350.000000
-30.341423	9.935000	3160.768799
-29.341423	9.935000	3166.134766
-28.341423	9.935000	3172.643311
-27.341423	9.935000	3170.647461
-26.341423	9.935000	3172.905762
-25.341423	9.935000	3156.944336
-24.341423	9.935000	3160.848145
-23.341423	9.935000	3161.864502
-22.341423	9.935000	3170.360840
-21.341423	9.935000	3167.299072
-20.341423	9.935000	3174.233643
-19.341423	9.935000	3156.830078
-18.341423	9.935000	3169.224609
-17.341423	9.935000	3158.739258
-16.341423	9.935000	3101.949951
-15.341423	9.935000	3164.193848
-14.341423	9.935000	3162.056641
-13.341423	9.935000	3162.247070
-12.341423	9.935000	3159.954346
-11.341423	9.935000	3170.829102
-10.341423	9.935000	3184.947754
-9.341423	9.935000	3186.271973
-8.341423	9.935000	3173.466797
-7.341423	9.935000	3169.566162
-6.341423	9.935000	3162.779541
-5.341423	9.935000	3288.714355
-4.341423	9.935000	3155.613525
-3.341423	9.935000	3161.544678
-2.341423	9.935000	3161.420654
-1.341423	9.935000	3291.183350
-0.341423	9.935000	3162.642334
0.658577	9.935000	3161.028809
1.658577	9.935000	3165.749268
2.658577	9.935000	3161.522949
3.658577	9.935000	3157.064209
4.658577	9.935000	3164.662354
5.658577	9.935000	3170.727539
6.658577	9.935000	3163.861816
7.658577	9.935000	3172.986572
8.658577	9.935000	3174.891846
9.658577	9.935000	3176.827637
10.658577	9.935000	3171.515381
11.658577	9.935000	3173.181152
12.658577	9.935000	3157.091309
13.658577	9.935000	3215.159424
14.658577	9.935000	3350.000000
15.658577	9.935000	3100.000000
16.658577	9.935000	3350.000000
17.658577	9.935000	3320.059814
18.658577	9.935000	3100.000000
19.658577	9.935000	3350.000000
20.658577	9.935000	3182.213867
21.658577	9.935000	3163.651855
22.658577	9.935000	3187.968750
23.658577	9.935000	3159.688965
24.658577	9.935000	3147.104980
-39.341423	10.935000	3146.551270
-38.341423	10.935000	3150.886475
-37.341423	10.935000	3144.664063
-36.341423	10.935000	3150.409668
-35.341423	10.935000	3157.728027
-34.341423	10.935000	3157.556641
-33.341423	10.935000	3161.002197
-32.341423	10.935000	3159.754639
-31.341423	10.935000	3156.701660
-30.341423	10.935000	3350.000000
-29.341423	10.935000	3309.968994
-28.341423	10.935000	3350.000000
-27.341423	10.935000	3155.487549
-26.341423	10.935000	3161.315430
-25.341423	10.935000	3187.937500
-24.341423	10.935000	3106.868896
-23.341423	10.935000	3164.325928
-22.341423	10.935000	3160.642090
-21.341423	10.935000	3169.881836
-20.341423	10.935000	3178.833496
-19.341423	10.935000	3161.586182
-18.341423	10.935000	3160.412109
-17.341423	10.935000	3172.530762
-16.341423	10.935000	3169.345703
-15.341423	10.935000	3161.972412
-14.341423	10.935000	3168.381836
-13.341423	10.935000	3160.900635
-12.341423	10.935000	3156.091064
-11.341423	10.935000	3154.532959
-10.341423	10.935000	3169.983398
-9.341423	10.935000	3174.793457
-8.341423	10.935000	3186.160889
-7.341423	10.935000	3171.085938
-6.341423	10.935000	3165.422852
-5.341423	10.935000	3341.964355
-4.341423	10.935000	3157.674561
-3.341423	10.935000	3166.752441
-2.341423	10.935000	3171.292725
-1.341423	10.935000	3163.296631
-0.341423	10.935000	3159.303711
0.658577	10.935000	3158.953125
1.658577	10.935000	3161.233643
2.658577	10.935000	3162.618164
3.658577	10.935000	3166.145020
4.658577	10.935000	3166.378906
5.658577	10.935000	3156.091064
6.658577	10.935000	3193.346924
7.658577	10.935000	3172.640869
8.658577	10.935000	3138.894531
9.658577	10.935000	3138.539795
10.658577	10.935000	3147.406738
11.658577	10.935000	3170.295166
12.658577	10.935000	3171.582764
13.658577	10.935000	3238.570313
14.658577	10.935000	3347.299561
15.658577	10.935000	3350.000000
16.658577	10.935000	3350.000000
17.658577	10.935000	3186.547363
18.658577	10.935000	3100.000000
19.658577	10.935000	3350.000000
20.658577	10.935000	3161.193115
21.658577	10.935000	3154.947754
22.658577	10.935000	3157.501953
23.658577	10.935000	3166.219971
24.658577	10.935000	3158.046875
-39.341423	11.935000	3350.000000
-38.341423	11.935000	3158.852783
-37.341423	11.935000	3255.701172
-36.341423	11.935000	3162.181396
-35.341423	11.935000	3165.363525
-34.341423	11.935000	3146.616699
-33.341423	11.935000	3159.720459
-32.341423	11.935000	3155.528809
-31.341423	11.935000	3350.000000
-30.341423	11.935000	3158.307617
-29.341423	11.935000	3155.683105
-28.341423	11.935000	3165.424072
-27.341423	11.935000	3154.552979
-26.341423	11.935000	3171.114502
-25.341423	11.935000	3189.398682
-24.341423	11.935000	3308.184570
-23.341423	11.935000	3165.462158
-22.341423	11.935000	3162.527832
-21.341423	11.935000	3171.020996
-20.341423	11.935000	3166.655029
-19.341423	11.935000	3167.026123
-18.341423	11.935000	3164.149170
-17.341423	11.935000	3162.362061
-16.341423	11.935000	3169.444336
-15.341423	11.935000	3171.573486
-14.341423	11.935000	3165.104004
-13.341423	11.935000	3331.981201
-12.341423	11.935000	3174.748047
-11.341423	11.935000	3166.366211
-10.341423	11.935000	3165.182617
-9.341423	11.935000	3167.579590
-8.341423	11.935000	3175.451416
-7.341423	11.935000	3187.129883
-6.341423	11.935000	3173.435303
-5.341423	11.935000	3161.286865
-4.341423	11.935000	3154.305664
-3.341423	11.935000	3162.027588
-2.341423	11.935000	3172.289795
-1.341423	11.935000	3165.638916
-0.341423	11.935000	3166.434326
0.658577	11.935000	3166.878662
1.658577	11.935000	3165.065918
2.658577	11.935000	3167.129883
3.658577	11.935000	3148.791504
4.658577	11.935000	3234.663330
5.658577	11.935000	3163.842285
6.658577	11.935000	3162.292969
7.658577	11.935000	3350.000000
8.658577	11.935000	3154.722900
9.658577	11.935000	3168.253174
10.658577	11.935000	3164.481445
11.658577	11.935000	3163.041748
12.658577	11.935000	3165.698486
13.658577	11.935000	3163.432373
14.658577	11.935000	3350.000000
15.658577	11.935000	3336.511230
16.658577	11.935000	3350.000000
17.658577	11.935000	3350.000000
18.658577	11.935000	3350.000000
19.658577	11.935000	3100.000000
20.658577	11.935000	3161.796143
21.658577	11.935000	3166.130859
22.658577	11.935000	3155.474609
23.658577	11.935000	3167.770264
24.658577	11.935000	3155.146729
-39.341423	12.935000	3153.991699
-38.341423	12.935000	3149.350586
-37.341423	12.935000	3151.242676
-36.341423	12.935000	3163.330078
-35.341423	12.935000	3158.755371
-34.341423	12.935000	3153.529297
-33.341423	12.935000	3161.202881
-32.341423	12.935000	3153.044678
-31.341423	12.935000	3156.002686
-30.341423	12.935000	3350.000000
-29.341423	12.935000	3167.833008
-28.341423	12.935000	3170.371338
-27.341423	12.935000	3158.386475
-26.341423	12.935000	3172.725098
-25.341423	12.935000	3100.000000
-24.341423	12.935000	3166.379150
-23.341423	12.935000	3163.079102
-22.341423	12.935000	3169.788574
-21.341423	12.935000	3158.590820
-20.341423	12.935000	3152.109863
-19.341423	12.935000	3158.994873
-18.341423	12.935000	3167.445313
-17.341423	12.935000	3186.651367
-16.341423	12.935000	3173.491211
-15.341423	12.935000	3161.329346
-14.341423	12.935000	3166.065918
-13.341423	12.935000	3158.783203
-12.341423	12.935000	3148.743408
-11.341423	12.935000	3166.859131
-10.341423	12.935000	3158.623779
-9.341423	12.935000	3162.226074
-8.341423	12.935000	3183.233398
-7.341423	12.935000	3165.200684
-6.341423	12.935000	3218.960938
-5.341423	12.935000	3167.194092
-4.341423	12.935000	3160.802246
-3.341423	12.935000	3159.865967
-2.341423	12.935000	3166.090576
-1.341423	12.935000	3161.990234
-0.341423	12.935000	3162.910645
0.658577	12.935000	3167.256104
1.658577	12.935000	3163.536865
2.658577	12.935000	3170.342773
3.658577	12.935000	3160.474365
4.658577	12.935000	3208.349854
5.658577	12.935000	3152.150391
6.658577	12.935000	3152.384033
7.658577	12.935000	3169.613525
8.658577	12.935000	3143.895752
9.658577	12.935000	3161.260010
10.658577	12.935000	3158.118408
11.658577	12.935000	3171.464355
12.658577	12.935000	3149.852783
13.658577	12.935000	3160.342529
14.658577	12.935000	3100.301514
15.658577	12.935000	3350.000000
16.658577	12.935000	3350.000000
17.658577	12.935000	3350.000000
18.658577	12.935000	3350.000000
19.658577	12.935000	3350.000000
20.658577	12.935000	3243.334961
21.658577	12.935000	3350.000000
22.658577	12.935000	3162.348633
23.658577	12.935000	3165.473877
24.658577	12.935000	3181.010986
-39.341423	13.935000	3160.083496
-38.341423	13.935000	3154.556396
-37.341423	13.935000	3155.166748
-36.341423	13.935000	3158.906982
-35.341423	13.935000	3350.000000
-34.341423	13.935000	3344.786377
-33.341423	13.935000	3159.068848
-32.341423	13.935000	3158.083496
-31.341423	13.935000	3154.772461
-30.341423	13.935000	3349.852539
-29.341423	13.935000	3307.405273
-28.341423	13.935000	3171.765381
-27.341423	13.935000	3178.526855
-26.341423	13.935000	3177.303955
-25.341423	13.935000	3169.089355
-24.341423	13.935000	3163.277100
-23.341423	13.935000	3151.004883
-22.341423	13.935000	3162.422119
-21.341423	13.935000	3159.742188
-20.341423	13.935000	3101.175049
-19.341423	13.935000	3161.865967
-18.341423	13.935000	3167.399658
-17.341423	13.935000	3169.407227
-16.341423	13.935000	3162.018555
-15.341423	13.935000	3165.808838
-14.341423	13.935000	3162.682373
-13.341423	13.935000	3160.515137
-12.341423	13.935000	3175.786865
-11.341423	13.935000	3160.293457
-10.341423	13.935000	3152.685791
-9.341423	13.935000	3152.678467
-8.341423	13.935000	3191.285645
-7.341423	13.935000	3161.209717
-6.341423	13.935000	3169.527100
-5.341423	13.935000	3162.719727
-4.341423	13.935000	3156.662354
-3.341423	13.935000	3164.148193
-2.341423	13.935000	3166.858154
-1.341423	13.935000	3152.447510
-0.341423	13.935000	3160.421631
0.658577	13.935000	3163.632813
1.658577	13.935000	3173.681885
2.658577	13.935000	3158.201904
3.658577	13.935000	3148.692139
4.658577	13.935000	3231.420410
5.658577	13.935000	3229.515625
6.658577	13.935000	3165.085693
7.658577	13.935000	3163.303223
8.658577	13.935000	3167.280518
9.658577	13.935000	3169.215576
10.658577	13.935000	3165.111572
11.658577	13.935000	3167.845947
12.658577	13.935000	3172.261719
13.658577	13.935000	3158.457031
14.658577	13.935000	3350.000000
15.658577	13.935000	3350.000000
16.658577	13.935000	3195.494629
17.658577	13.935000	3214.030518
18.658577	13.935000	3100.000000
19.658577	13.935000	3350.000000
20.658577	13.935000	3100.000000
21.658577	13.935000	3333.488525
22.658577	13.935000	3100.000000
23.658577	13.935000	3350.000000
24.658577	13.935000	3350.000000
-39.341423	14.935000	3348.628174
-38.341423	14.935000	3350.000000
-37.341423	14.935000	3157.758301
-36.341423	14.935000	3155.838867
-35.341423	14.935000	3350.000000
-34.341423	14.935000	3160.640381
-33.341423	14.935000	3153.799316
-32.341423	14.935000	3158.755859
-31.341423	14.935000	3158.127930
-30.341423	14.935000	3168.092773
-29.341423	14.935000	3157.011719
-28.341423	14.935000	3171.621094
-27.341423	14.935000	3169.511963
-26.341423	14.935000	3166.256104
-25.341423	14.935000	3162.231445
-24.341423	14.935000	3165.830811
-23.341423	14.935000	3176.918701
-22.341423	14.935000	3171.416992
-21.341423	14.935000	3161.086914
-20.341423	14.935000	3165.286865
-19.341423	14.935000	3160.917236
-18.341423	14.935000	3164.680420
-17.341423	14.935000	3153.149902
-16.341423	14.935000	3164.239014
-15.341423	14.935000	3157.190430
-14.341423	14.935000	3161.737305
-13.341423	14.935000	3171.389893
-12.341423	14.935000	3164.622803
-11.341423	14.935000	3174.653320
-10.341423	14.935000	3147.187012
-9.341423	14.935000	3198.940674
-8.341423	14.935000	3158.639893
-7.341423	14.935000	3162.826172
-6.341423	14.935000	3285.344482
-5.341423	14.935000	3169.304443
-4.341423	14.935000	3163.810059
-3.341423	14.935000	3162.662598
-2.341423	14.935000	3218.000488
-1.341423	14.935000	3166.174561
-0.341423	14.935000	3152.076660
0.658577	14.935000	3157.015869
1.658577	14.935000	3168.732910
2.658577	14.935000	3158.426514
3.658577	14.935000	3175.419678
4.658577	14.935000	3204.700928
5.658577	14.935000	3170.271484
6.658577	14.935000	3199.282959
7.658577	14.935000	3184.415527
8.658577	14.935000	3156.174561
9.658577	14.935000	3164.620117
10.658577	14.935000	3165.051514
11.658577	14.935000	3170.094971
12.658577	14.935000	3172.220215
13.658577	14.935000	3179.954834
14.658577	14.935000	3100.000000
15.658577	14.935000	3350.000000
16.658577	14.935000	3350.000000
17.658577	14.935000	3350.000000
18.658577	14.935000	3350.000000
19.658577	14.935000	3100.000000
20.658577	14.935000	3100.000000
21.658577	14.935000	3350.000000
22.658577	14.935000	3350.000000
23.658577	14.935000	3350.000000
24.658577	14.935000	3350.000000
-39.341423	15.935000	3159.208496
-38.341423	15.935000	3159.665039
-37.341423	15.935000	3160.096924
-36.341423	15.935000	3160.466797
-35.341423	15.935000	3154.166748
-34.341423	15.935000	3156.016846
-33.341423	15.935000	3157.943359
-32.341423	15.935000	3154.656738
-31.341423	15.935000	3162.502197
-30.341423	15.935000	3168.564941
-29.341423	15.935000	3174.209717
-28.341423	15.935000	3162.195068
-27.341423	15.935000	3159.149658
-26.341423	15.935000	3179.010986
-25.341423	15.935000	3177.717529
-24.341423	15.935000	3173.114746
-23.341423	15.935000	3188.877197
-22.341423	15.935000	3174.656738
-21.341423	15.935000	3165.071777
-20.341423	15.935000	3151.573486
-19.341423	15.935000	3165.396240
-18.341423	15.935000	3158.226074
-17.341423	15.935000	3162.534912
-16.341423	15.935000	3164.395752
-15.341423	15.935000	3350.000000
-14.341423	15.935000	3328.413330
-13.341423	15.935000	3160.315918
-12.341423	15.935000	3349.182129
-11.341423	15.935000	3157.355225
-10.341423	15.935000	3181.552979
-9.341423	15.935000	3350.000000
-8.341423	15.935000	3218.405762
-7.341423	15.935000	3167.142090
-6.341423	15.935000	3167.835205
-5.341423	15.935000	3202.705811
-4.341423	15.935000	3149.304688
-3.341423	15.935000	3164.567871
-2.341423	15.935000	3172.128174
-1.341423	15.935000	3164.107910
-0.341423	15.935000	3166.369629
0.658577	15.935000	3172.053955
1.658577	15.935000	3170.102295
2.658577	15.935000	3171.023438
3.658577	15.935000	3173.881348
4.658577	15.935000	3350.000000
5.658577	15.935000	3350.000000
6.658577	15.935000	3171.369141
7.658577	15.935000	3350.000000
8.658577	15.935000	3147.028076
9.658577	15.935000	3162.567383
10.658577	15.935000	3166.468018
11.658577	15.935000	3171.396973
12.658577	15.935000	3167.521729
13.658577	15.935000	3137.894043
14.658577	15.935000	3337.906006
15.658577	15.935000	3350.000000
16.658577	15.935000	3337.052490
17.658577	15.935000	3350.000000
18.658577	15.935000	3350.000000
19.658577	15.935000	3350.000000
20.658577	15.935000	3350.000000
21.658577	15.935000	3342.442139
22.658577	15.935000	3100.000000
23.658577	15.935000	3263.187988
24.658577	15.935000	3350.000000
