#XList		#YList		#IList		
-39.341423	-21.065000	147.953903
-38.341423	-21.065000	294.639648
-37.341423	-21.065000	218.191147
-36.341423	-21.065000	234.530853
-35.341423	-21.065000	213.314087
-34.341423	-21.065000	150.084564
-33.341423	-21.065000	136.469879
-32.341423	-21.065000	121.053444
-31.341423	-21.065000	127.665970
-30.341423	-21.065000	130.145126
-29.341423	-21.065000	156.739273
-28.341423	-21.065000	143.701279
-27.341423	-21.065000	110.708359
-26.341423	-21.065000	151.667435
-25.341423	-21.065000	117.210571
-24.341423	-21.065000	62.363239
-23.341423	-21.065000	2141.395264
-22.341423	-21.065000	684.432739
-21.341423	-21.065000	146.601456
-20.341423	-21.065000	167.337158
-19.341423	-21.065000	2329.607666
-18.341423	-21.065000	583.222168
-17.341423	-21.065000	182.362320
-16.341423	-21.065000	120.107658
-15.341423	-21.065000	151.609741
-14.341423	-21.065000	0.639823
-13.341423	-21.065000	143.108414
-12.341423	-21.065000	133.075089
-11.341423	-21.065000	107.785118
-10.341423	-21.065000	88.363724
-9.341423	-21.065000	142.046829
-8.341423	-21.065000	178.362076
-7.341423	-21.065000	146.619720
-6.341423	-21.065000	147.698318
-5.341423	-21.065000	132.808151
-4.341423	-21.065000	59.233685
-3.341423	-21.065000	103.961006
-2.341423	-21.065000	108.511017
-1.341423	-21.065000	129.005417
-0.341423	-21.065000	122.835098
0.658577	-21.065000	140.272812
1.658577	-21.065000	108.374321
2.658577	-21.065000	131.825897
3.658577	-21.065000	127.827934
4.658577	-21.065000	149.700485
5.658577	-21.065000	193.340714
6.658577	-21.065000	2595.124023
7.658577	-21.065000	2595.124023
8.658577	-21.065000	2595.124023
9.658577	-21.065000	21.019753
10.658577	-21.065000	234.487579
11.658577	-21.065000	144.093674
12.658577	-21.065000	126.791077
13.658577	-21.065000	103.012161
14.658577	-21.065000	118.869667
15.658577	-21.065000	125.774483
16.658577	-21.065000	164.764862
17.658577	-21.065000	112.890373
18.658577	-21.065000	135.364410
19.658577	-21.065000	133.667328
20.658577	-21.065000	163.027802
21.658577	-21.065000	97.922028
22.658577	-21.065000	297.055695
23.658577	-21.065000	2552.781250
24.658577	-21.065000	2517.592773
-39.341423	-20.065000	134.179596
-38.341423	-20.065000	155.864197
-37.341423	-20.065000	143.268692
-36.341423	-20.065000	134.389709
-35.341423	-20.065000	248.071365
-34.341423	-20.065000	114.719803
-33.341423	-20.065000	108.748970
-32.341423	-20.065000	0.639823
-31.341423	-20.065000	115.978981
-30.341423	-20.065000	0.639823
-29.341423	-20.065000	127.459755
-28.341423	-20.065000	151.950577
-27.341423	-20.065000	111.506447
-26.341423	-20.065000	111.731804
-25.341423	-20.065000	124.482109
-24.341423	-20.065000	120.622154
-23.341423	-20.065000	158.642395
-22.341423	-20.065000	134.350540
-21.341423	-20.065000	136.975723
-20.341423	-20.065000	114.556259
-19.341423	-20.065000	174.872711
-18.341423	-20.065000	134.519730
-17.341423	-20.065000	112.296349
-16.341423	-20.065000	121.692703
-15.341423	-20.065000	126.557358
-14.341423	-20.065000	128.267258
-13.341423	-20.065000	110.846626
-12.341423	-20.065000	121.818344
-11.341423	-20.065000	132.774094
-10.341423	-20.065000	8.684147
-9.341423	-20.065000	141.122040
-8.341423	-20.065000	130.160965
-7.341423	-20.065000	160.010101
-6.341423	-20.065000	137.213623
-5.341423	-20.065000	98.710815
-4.341423	-20.065000	96.368446
-3.341423	-20.065000	215.566681
-2.341423	-20.065000	121.014893
-1.341423	-20.065000	138.623260
-0.341423	-20.065000	134.483276
0.658577	-20.065000	191.483688
1.658577	-20.065000	129.945633
2.658577	-20.065000	133.301437
3.658577	-20.065000	165.913651
4.658577	-20.065000	141.236465
5.658577	-20.065000	232.889847
6.658577	-20.065000	2595.124023
7.658577	-20.065000	2595.124023
8.658577	-20.065000	1005.201538
9.658577	-20.065000	132.319656
10.658577	-20.065000	570.496277
11.658577	-20.065000	161.244553
12.658577	-20.065000	135.559631
13.658577	-20.065000	137.567627
14.658577	-20.065000	133.996841
15.658577	-20.065000	156.801529
16.658577	-20.065000	123.050697
17.658577	-20.065000	125.962959
18.658577	-20.065000	121.828255
19.658577	-20.065000	125.239807
20.658577	-20.065000	135.828247
21.658577	-20.065000	106.294456
22.658577	-20.065000	169.959854
23.658577	-20.065000	2595.124023
24.658577	-20.065000	2595.124023
-39.341423	-19.065000	157.109650
-38.341423	-19.065000	184.148499
-37.341423	-19.065000	172.338104
-36.341423	-19.065000	125.611244
-35.341423	-19.065000	165.606339
-34.341423	-19.065000	89.157646
-33.341423	-19.065000	166.934860
-32.341423	-19.065000	129.308411
-31.341423	-19.065000	137.575714
-30.341423	-19.065000	134.918686
-29.341423	-19.065000	140.788742
-28.341423	-19.065000	133.503754
-27.341423	-19.065000	116.261589
-26.341423	-19.065000	136.653458
-25.341423	-19.065000	130.264648
-24.341423	-19.065000	143.182861
-23.341423	-19.065000	122.618179
-22.341423	-19.065000	127.546455
-21.341423	-19.065000	144.927826
-20.341423	-19.065000	122.102631
-19.341423	-19.065000	137.684830
-18.341423	-19.065000	109.717751
-17.341423	-19.065000	119.598465
-16.341423	-19.065000	120.541046
-15.341423	-19.065000	120.461433
-14.341423	-19.065000	0.639823
-13.341423	-19.065000	117.920967
-12.341423	-19.065000	117.683739
-11.341423	-19.065000	112.672455
-10.341423	-19.065000	131.864075
-9.341423	-19.065000	114.113625
-8.341423	-19.065000	128.176208
-7.341423	-19.065000	119.713654
-6.341423	-19.065000	123.028488
-5.341423	-19.065000	123.190178
-4.341423	-19.065000	129.887390
-3.341423	-19.065000	126.307533
-2.341423	-19.065000	112.353233
-1.341423	-19.065000	165.384399
-0.341423	-19.065000	147.996063
0.658577	-19.065000	154.956390
1.658577	-19.065000	179.709900
2.658577	-19.065000	175.340500
3.658577	-19.065000	168.157578
4.658577	-19.065000	193.000885
5.658577	-19.065000	43.278652
6.658577	-19.065000	1377.460571
7.658577	-19.065000	170.469162
8.658577	-19.065000	145.041428
9.658577	-19.065000	137.765182
10.658577	-19.065000	187.657654
11.658577	-19.065000	131.143692
12.658577	-19.065000	152.330475
13.658577	-19.065000	110.130394
14.658577	-19.065000	115.563728
15.658577	-19.065000	92.219376
16.658577	-19.065000	119.043457
17.658577	-19.065000	50.809795
18.658577	-19.065000	147.447662
19.658577	-19.065000	111.325645
20.658577	-19.065000	106.885147
21.658577	-19.065000	115.991371
22.658577	-19.065000	34.296539
23.658577	-19.065000	432.143127
24.658577	-19.065000	2595.124023
-39.341423	-18.065000	175.054718
-38.341423	-18.065000	199.123810
-37.341423	-18.065000	159.299789
-36.341423	-18.065000	178.531097
-35.341423	-18.065000	136.656586
-34.341423	-18.065000	362.730652
-33.341423	-18.065000	103.668991
-32.341423	-18.065000	127.447685
-31.341423	-18.065000	126.116722
-30.341423	-18.065000	117.898376
-29.341423	-18.065000	140.838669
-28.341423	-18.065000	126.121666
-27.341423	-18.065000	137.601868
-26.341423	-18.065000	119.901672
-25.341423	-18.065000	154.299561
-24.341423	-18.065000	124.358231
-23.341423	-18.065000	137.577057
-22.341423	-18.065000	137.110474
-21.341423	-18.065000	139.711716
-20.341423	-18.065000	127.096840
-19.341423	-18.065000	119.358131
-18.341423	-18.065000	109.549217
-17.341423	-18.065000	131.823395
-16.341423	-18.065000	145.832077
-15.341423	-18.065000	130.986633
-14.341423	-18.065000	116.261047
-13.341423	-18.065000	126.574638
-12.341423	-18.065000	130.568359
-11.341423	-18.065000	128.037994
-10.341423	-18.065000	143.602081
-9.341423	-18.065000	152.697769
-8.341423	-18.065000	148.619308
-7.341423	-18.065000	141.828934
-6.341423	-18.065000	115.297379
-5.341423	-18.065000	115.382576
-4.341423	-18.065000	153.162827
-3.341423	-18.065000	117.659103
-2.341423	-18.065000	130.641617
-1.341423	-18.065000	184.414322
-0.341423	-18.065000	145.694855
0.658577	-18.065000	149.378677
1.658577	-18.065000	217.102875
2.658577	-18.065000	147.997757
3.658577	-18.065000	162.839325
4.658577	-18.065000	100.756859
5.658577	-18.065000	149.683319
6.658577	-18.065000	109.976173
7.658577	-18.065000	127.497429
8.658577	-18.065000	0.639823
9.658577	-18.065000	136.151474
10.658577	-18.065000	127.726807
11.658577	-18.065000	137.550171
12.658577	-18.065000	139.010086
13.658577	-18.065000	118.037270
14.658577	-18.065000	130.804459
15.658577	-18.065000	128.936050
16.658577	-18.065000	140.805145
17.658577	-18.065000	147.807846
18.658577	-18.065000	145.582245
19.658577	-18.065000	144.417953
20.658577	-18.065000	61.432774
21.658577	-18.065000	71.851524
22.658577	-18.065000	109.595055
23.658577	-18.065000	119.647049
24.658577	-18.065000	127.196991
-39.341423	-17.065000	141.811447
-38.341423	-17.065000	117.386215
-37.341423	-17.065000	102.580841
-36.341423	-17.065000	83.817039
-35.341423	-17.065000	93.374290
-34.341423	-17.065000	646.770508
-33.341423	-17.065000	92.864861
-32.341423	-17.065000	151.805466
-31.341423	-17.065000	148.607788
-30.341423	-17.065000	130.641174
-29.341423	-17.065000	129.550735
-28.341423	-17.065000	140.106873
-27.341423	-17.065000	148.926941
-26.341423	-17.065000	148.244110
-25.341423	-17.065000	136.963211
-24.341423	-17.065000	148.318588
-23.341423	-17.065000	133.668350
-22.341423	-17.065000	117.670151
-21.341423	-17.065000	109.869278
-20.341423	-17.065000	131.172592
-19.341423	-17.065000	128.153732
-18.341423	-17.065000	3.074213
-17.341423	-17.065000	144.888977
-16.341423	-17.065000	135.105728
-15.341423	-17.065000	126.525177
-14.341423	-17.065000	130.983917
-13.341423	-17.065000	125.908722
-12.341423	-17.065000	0.639823
-11.341423	-17.065000	102.731544
-10.341423	-17.065000	129.373032
-9.341423	-17.065000	132.422333
-8.341423	-17.065000	130.351624
-7.341423	-17.065000	74.825752
-6.341423	-17.065000	124.059441
-5.341423	-17.065000	115.707405
-4.341423	-17.065000	123.570343
-3.341423	-17.065000	210.349045
-2.341423	-17.065000	162.099487
-1.341423	-17.065000	134.469818
-0.341423	-17.065000	159.244812
0.658577	-17.065000	128.307449
1.658577	-17.065000	146.304138
2.658577	-17.065000	168.139145
3.658577	-17.065000	226.037079
4.658577	-17.065000	112.916504
5.658577	-17.065000	89.596672
6.658577	-17.065000	129.730927
7.658577	-17.065000	122.065331
8.658577	-17.065000	142.709259
9.658577	-17.065000	116.301514
10.658577	-17.065000	177.178024
11.658577	-17.065000	127.621635
12.658577	-17.065000	125.925674
13.658577	-17.065000	102.234978
14.658577	-17.065000	135.740387
15.658577	-17.065000	115.527954
16.658577	-17.065000	101.721664
17.658577	-17.065000	139.530869
18.658577	-17.065000	222.459503
19.658577	-17.065000	168.724335
20.658577	-17.065000	130.418243
21.658577	-17.065000	123.323174
22.658577	-17.065000	113.424950
23.658577	-17.065000	154.099579
24.658577	-17.065000	114.474098
-39.341423	-16.065000	152.044403
-38.341423	-16.065000	168.871826
-37.341423	-16.065000	132.337021
-36.341423	-16.065000	135.006653
-35.341423	-16.065000	89.555992
-34.341423	-16.065000	148.363251
-33.341423	-16.065000	126.058258
-32.341423	-16.065000	128.815659
-31.341423	-16.065000	113.860542
-30.341423	-16.065000	131.725159
-29.341423	-16.065000	126.708893
-28.341423	-16.065000	154.573074
-27.341423	-16.065000	123.581902
-26.341423	-16.065000	139.883102
-25.341423	-16.065000	117.017426
-24.341423	-16.065000	116.017166
-23.341423	-16.065000	99.419456
-22.341423	-16.065000	158.658234
-21.341423	-16.065000	133.799011
-20.341423	-16.065000	51.034245
-19.341423	-16.065000	0.639823
-18.341423	-16.065000	15.397819
-17.341423	-16.065000	104.638077
-16.341423	-16.065000	0.639823
-15.341423	-16.065000	0.639823
-14.341423	-16.065000	113.075951
-13.341423	-16.065000	0.639823
-12.341423	-16.065000	128.716461
-11.341423	-16.065000	129.764679
-10.341423	-16.065000	168.210846
-9.341423	-16.065000	114.247009
-8.341423	-16.065000	112.420906
-7.341423	-16.065000	178.758301
-6.341423	-16.065000	112.331268
-5.341423	-16.065000	135.156845
-4.341423	-16.065000	147.234207
-3.341423	-16.065000	159.846436
-2.341423	-16.065000	173.083923
-1.341423	-16.065000	139.125961
-0.341423	-16.065000	142.394363
0.658577	-16.065000	163.808029
1.658577	-16.065000	170.654984
2.658577	-16.065000	202.578659
3.658577	-16.065000	202.329865
4.658577	-16.065000	143.046921
5.658577	-16.065000	135.994537
6.658577	-16.065000	133.308456
7.658577	-16.065000	139.978516
8.658577	-16.065000	119.540138
9.658577	-16.065000	152.711807
10.658577	-16.065000	140.050781
11.658577	-16.065000	132.207382
12.658577	-16.065000	116.432922
13.658577	-16.065000	112.814651
14.658577	-16.065000	127.253067
15.658577	-16.065000	119.940620
16.658577	-16.065000	94.352898
17.658577	-16.065000	167.257919
18.658577	-16.065000	154.787613
19.658577	-16.065000	120.781548
20.658577	-16.065000	109.154305
21.658577	-16.065000	128.268524
22.658577	-16.065000	132.584900
23.658577	-16.065000	130.301941
24.658577	-16.065000	95.535576
-39.341423	-15.065000	199.672943
-38.341423	-15.065000	321.585114
-37.341423	-15.065000	162.215195
-36.341423	-15.065000	127.825539
-35.341423	-15.065000	0.639823
-34.341423	-15.065000	134.555405
-33.341423	-15.065000	0.639823
-32.341423	-15.065000	1.180400
-31.341423	-15.065000	130.620804
-30.341423	-15.065000	131.265457
-29.341423	-15.065000	132.650681
-28.341423	-15.065000	129.827209
-27.341423	-15.065000	148.879501
-26.341423	-15.065000	140.448303
-25.341423	-15.065000	148.390900
-24.341423	-15.065000	134.141235
-23.341423	-15.065000	146.723434
-22.341423	-15.065000	102.473587
-21.341423	-15.065000	125.257057
-20.341423	-15.065000	115.015495
-19.341423	-15.065000	171.606094
-18.341423	-15.065000	113.974060
-17.341423	-15.065000	107.170074
-16.341423	-15.065000	125.120705
-15.341423	-15.065000	124.047340
-14.341423	-15.065000	0.639823
-13.341423	-15.065000	119.896530
-12.341423	-15.065000	120.762596
-11.341423	-15.065000	139.284958
-10.341423	-15.065000	131.688889
-9.341423	-15.065000	158.144882
-8.341423	-15.065000	174.473679
-7.341423	-15.065000	163.665833
-6.341423	-15.065000	123.752563
-5.341423	-15.065000	133.314560
-4.341423	-15.065000	131.342712
-3.341423	-15.065000	129.837280
-2.341423	-15.065000	151.593338
-1.341423	-15.065000	196.721329
-0.341423	-15.065000	131.029922
0.658577	-15.065000	134.682114
1.658577	-15.065000	113.341484
2.658577	-15.065000	157.034592
3.658577	-15.065000	144.512787
4.658577	-15.065000	132.113037
5.658577	-15.065000	0.639823
6.658577	-15.065000	140.343018
7.658577	-15.065000	136.970551
8.658577	-15.065000	135.746475
9.658577	-15.065000	128.005661
10.658577	-15.065000	116.403412
11.658577	-15.065000	112.985962
12.658577	-15.065000	83.529060
13.658577	-15.065000	120.236511
14.658577	-15.065000	152.590317
15.658577	-15.065000	100.646782
16.658577	-15.065000	100.858856
17.658577	-15.065000	133.971527
18.658577	-15.065000	168.089035
19.658577	-15.065000	141.021942
20.658577	-15.065000	97.352226
21.658577	-15.065000	137.603607
22.658577	-15.065000	131.596390
23.658577	-15.065000	121.085655
24.658577	-15.065000	112.411385
-39.341423	-14.065000	192.961838
-38.341423	-14.065000	160.428223
-37.341423	-14.065000	0.639823
-36.341423	-14.065000	123.091530
-35.341423	-14.065000	136.793228
-34.341423	-14.065000	122.473839
-33.341423	-14.065000	0.639823
-32.341423	-14.065000	0.639823
-31.341423	-14.065000	139.736893
-30.341423	-14.065000	134.808319
-29.341423	-14.065000	158.648209
-28.341423	-14.065000	159.940414
-27.341423	-14.065000	103.567322
-26.341423	-14.065000	126.168297
-25.341423	-14.065000	130.659866
-24.341423	-14.065000	127.115402
-23.341423	-14.065000	128.280396
-22.341423	-14.065000	105.428467
-21.341423	-14.065000	86.753464
-20.341423	-14.065000	132.685547
-19.341423	-14.065000	54.101280
-18.341423	-14.065000	114.506073
-17.341423	-14.065000	89.014114
-16.341423	-14.065000	112.057327
-15.341423	-14.065000	120.086952
-14.341423	-14.065000	109.923515
-13.341423	-14.065000	100.969780
-12.341423	-14.065000	114.285446
-11.341423	-14.065000	144.362274
-10.341423	-14.065000	130.443726
-9.341423	-14.065000	169.840561
-8.341423	-14.065000	170.847137
-7.341423	-14.065000	158.214523
-6.341423	-14.065000	136.014435
-5.341423	-14.065000	173.244049
-4.341423	-14.065000	183.525986
-3.341423	-14.065000	133.256729
-2.341423	-14.065000	164.383545
-1.341423	-14.065000	171.036285
-0.341423	-14.065000	204.734558
0.658577	-14.065000	159.637299
1.658577	-14.065000	113.261314
2.658577	-14.065000	113.797447
3.658577	-14.065000	158.297211
4.658577	-14.065000	143.229263
5.658577	-14.065000	154.563889
6.658577	-14.065000	128.231812
7.658577	-14.065000	129.395523
8.658577	-14.065000	150.323929
9.658577	-14.065000	135.467377
10.658577	-14.065000	121.177292
11.658577	-14.065000	50.460556
12.658577	-14.065000	188.246948
13.658577	-14.065000	110.611588
14.658577	-14.065000	105.834267
15.658577	-14.065000	1565.208618
16.658577	-14.065000	117.750198
17.658577	-14.065000	202.085556
18.658577	-14.065000	36.971920
19.658577	-14.065000	78.755081
20.658577	-14.065000	132.340103
21.658577	-14.065000	120.834541
22.658577	-14.065000	129.146683
23.658577	-14.065000	135.676208
24.658577	-14.065000	141.934814
-39.341423	-13.065000	140.649368
-38.341423	-13.065000	115.411026
-37.341423	-13.065000	130.262817
-36.341423	-13.065000	0.639823
-35.341423	-13.065000	0.639823
-34.341423	-13.065000	0.639823
-33.341423	-13.065000	0.639823
-32.341423	-13.065000	148.561172
-31.341423	-13.065000	123.311127
-30.341423	-13.065000	108.804283
-29.341423	-13.065000	149.008636
-28.341423	-13.065000	139.612564
-27.341423	-13.065000	151.510040
-26.341423	-13.065000	141.742508
-25.341423	-13.065000	123.081673
-24.341423	-13.065000	145.478134
-23.341423	-13.065000	123.058060
-22.341423	-13.065000	119.735153
-21.341423	-13.065000	132.912796
-20.341423	-13.065000	144.972733
-19.341423	-13.065000	161.173859
-18.341423	-13.065000	208.326309
-17.341423	-13.065000	125.273911
-16.341423	-13.065000	235.949249
-15.341423	-13.065000	148.779587
-14.341423	-13.065000	63.084091
-13.341423	-13.065000	18.255083
-12.341423	-13.065000	80.341370
-11.341423	-13.065000	161.748337
-10.341423	-13.065000	135.996078
-9.341423	-13.065000	127.298828
-8.341423	-13.065000	186.763306
-7.341423	-13.065000	156.616135
-6.341423	-13.065000	121.656555
-5.341423	-13.065000	168.653793
-4.341423	-13.065000	152.497269
-3.341423	-13.065000	199.723007
-2.341423	-13.065000	147.746658
-1.341423	-13.065000	169.974426
-0.341423	-13.065000	123.524216
0.658577	-13.065000	113.882813
1.658577	-13.065000	143.004730
2.658577	-13.065000	150.450333
3.658577	-13.065000	202.126175
4.658577	-13.065000	125.540276
5.658577	-13.065000	205.204605
6.658577	-13.065000	156.362289
7.658577	-13.065000	124.121773
8.658577	-13.065000	122.239159
9.658577	-13.065000	117.608337
10.658577	-13.065000	27.367636
11.658577	-13.065000	851.674988
12.658577	-13.065000	53.519470
13.658577	-13.065000	162.079895
14.658577	-13.065000	139.446609
15.658577	-13.065000	59.541618
16.658577	-13.065000	135.285492
17.658577	-13.065000	118.849533
18.658577	-13.065000	143.622192
19.658577	-13.065000	128.982315
20.658577	-13.065000	132.541550
21.658577	-13.065000	140.928146
22.658577	-13.065000	148.089539
23.658577	-13.065000	125.053070
24.658577	-13.065000	171.686874
-39.341423	-12.065000	140.389465
-38.341423	-12.065000	4.073205
-37.341423	-12.065000	119.376579
-36.341423	-12.065000	0.639823
-35.341423	-12.065000	964.915100
-34.341423	-12.065000	125.617126
-33.341423	-12.065000	142.586288
-32.341423	-12.065000	133.296341
-31.341423	-12.065000	128.048798
-30.341423	-12.065000	132.472855
-29.341423	-12.065000	126.407997
-28.341423	-12.065000	132.206421
-27.341423	-12.065000	111.757797
-26.341423	-12.065000	122.642242
-25.341423	-12.065000	138.206589
-24.341423	-12.065000	121.291130
-23.341423	-12.065000	137.252289
-22.341423	-12.065000	126.301689
-21.341423	-12.065000	191.196777
-20.341423	-12.065000	199.360504
-19.341423	-12.065000	188.000412
-18.341423	-12.065000	150.620285
-17.341423	-12.065000	238.363724
-16.341423	-12.065000	140.996735
-15.341423	-12.065000	131.387772
-14.341423	-12.065000	149.398621
-13.341423	-12.065000	87.552269
-12.341423	-12.065000	137.283508
-11.341423	-12.065000	216.703583
-10.341423	-12.065000	168.229843
-9.341423	-12.065000	168.065826
-8.341423	-12.065000	172.846710
-7.341423	-12.065000	132.330429
-6.341423	-12.065000	134.195587
-5.341423	-12.065000	124.867790
-4.341423	-12.065000	135.725266
-3.341423	-12.065000	152.915192
-2.341423	-12.065000	154.085281
-1.341423	-12.065000	135.679413
-0.341423	-12.065000	153.983963
0.658577	-12.065000	136.097061
1.658577	-12.065000	166.187302
2.658577	-12.065000	291.750031
3.658577	-12.065000	123.411301
4.658577	-12.065000	155.630814
5.658577	-12.065000	141.603287
6.658577	-12.065000	137.346619
7.658577	-12.065000	122.343430
8.658577	-12.065000	130.806824
9.658577	-12.065000	40.814163
10.658577	-12.065000	1634.248901
11.658577	-12.065000	629.607605
12.658577	-12.065000	142.329086
13.658577	-12.065000	26.053478
14.658577	-12.065000	101.624390
15.658577	-12.065000	137.541168
16.658577	-12.065000	149.705887
17.658577	-12.065000	119.273590
18.658577	-12.065000	139.003723
19.658577	-12.065000	145.121201
20.658577	-12.065000	160.844696
21.658577	-12.065000	159.203522
22.658577	-12.065000	200.036469
23.658577	-12.065000	162.086945
24.658577	-12.065000	132.429398
-39.341423	-11.065000	0.639823
-38.341423	-11.065000	0.639823
-37.341423	-11.065000	127.496582
-36.341423	-11.065000	126.179092
-35.341423	-11.065000	116.142174
-34.341423	-11.065000	147.082291
-33.341423	-11.065000	125.275238
-32.341423	-11.065000	131.030167
-31.341423	-11.065000	132.114822
-30.341423	-11.065000	0.639823
-29.341423	-11.065000	128.903091
-28.341423	-11.065000	0.639823
-27.341423	-11.065000	116.086510
-26.341423	-11.065000	111.313469
-25.341423	-11.065000	120.088036
-24.341423	-11.065000	134.888947
-23.341423	-11.065000	120.975227
-22.341423	-11.065000	114.962517
-21.341423	-11.065000	139.910126
-20.341423	-11.065000	105.364151
-19.341423	-11.065000	134.258987
-18.341423	-11.065000	96.236618
-17.341423	-11.065000	210.734268
-16.341423	-11.065000	199.508926
-15.341423	-11.065000	148.111298
-14.341423	-11.065000	163.608536
-13.341423	-11.065000	68.151680
-12.341423	-11.065000	143.186890
-11.341423	-11.065000	175.423218
-10.341423	-11.065000	130.669113
-9.341423	-11.065000	154.068527
-8.341423	-11.065000	131.172119
-7.341423	-11.065000	148.718887
-6.341423	-11.065000	129.893875
-5.341423	-11.065000	128.638824
-4.341423	-11.065000	184.805313
-3.341423	-11.065000	121.524666
-2.341423	-11.065000	186.758911
-1.341423	-11.065000	138.337082
-0.341423	-11.065000	167.736542
0.658577	-11.065000	194.581055
1.658577	-11.065000	142.837341
2.658577	-11.065000	163.441437
3.658577	-11.065000	190.076157
4.658577	-11.065000	166.355499
5.658577	-11.065000	182.461182
6.658577	-11.065000	161.977539
7.658577	-11.065000	142.227570
8.658577	-11.065000	147.290512
9.658577	-11.065000	204.413513
10.658577	-11.065000	2384.208984
11.658577	-11.065000	213.422379
12.658577	-11.065000	125.698219
13.658577	-11.065000	135.706009
14.658577	-11.065000	117.963974
15.658577	-11.065000	108.450043
16.658577	-11.065000	152.431946
17.658577	-11.065000	126.287758
18.658577	-11.065000	145.535294
19.658577	-11.065000	160.940704
20.658577	-11.065000	132.193787
21.658577	-11.065000	215.726883
22.658577	-11.065000	146.708817
23.658577	-11.065000	153.597977
24.658577	-11.065000	177.027069
-39.341423	-10.065000	0.639823
-38.341423	-10.065000	120.494263
-37.341423	-10.065000	2.958096
-36.341423	-10.065000	142.970566
-35.341423	-10.065000	0.639823
-34.341423	-10.065000	127.108124
-33.341423	-10.065000	121.484711
-32.341423	-10.065000	0.639823
-31.341423	-10.065000	130.344925
-30.341423	-10.065000	1144.959839
-29.341423	-10.065000	0.639823
-28.341423	-10.065000	0.639823
-27.341423	-10.065000	0.639823
-26.341423	-10.065000	121.098671
-25.341423	-10.065000	124.986206
-24.341423	-10.065000	109.681404
-23.341423	-10.065000	122.167946
-22.341423	-10.065000	39.022491
-21.341423	-10.065000	127.798454
-20.341423	-10.065000	95.521408
-19.341423	-10.065000	122.744781
-18.341423	-10.065000	150.121216
-17.341423	-10.065000	188.378845
-16.341423	-10.065000	154.786407
-15.341423	-10.065000	147.511841
-14.341423	-10.065000	133.789627
-13.341423	-10.065000	126.374817
-12.341423	-10.065000	163.744598
-11.341423	-10.065000	147.190491
-10.341423	-10.065000	130.008713
-9.341423	-10.065000	308.285461
-8.341423	-10.065000	194.066650
-7.341423	-10.065000	213.941025
-6.341423	-10.065000	85.916443
-5.341423	-10.065000	127.875885
-4.341423	-10.065000	152.125259
-3.341423	-10.065000	193.541519
-2.341423	-10.065000	181.188370
-1.341423	-10.065000	167.090363
-0.341423	-10.065000	124.055893
0.658577	-10.065000	144.972702
1.658577	-10.065000	140.276398
2.658577	-10.065000	143.664185
3.658577	-10.065000	110.004929
4.658577	-10.065000	189.482834
5.658577	-10.065000	137.924881
6.658577	-10.065000	121.893303
7.658577	-10.065000	105.640114
8.658577	-10.065000	65.822739
9.658577	-10.065000	60.652794
10.658577	-10.065000	2595.124023
11.658577	-10.065000	0.639823
12.658577	-10.065000	150.032013
13.658577	-10.065000	143.773224
14.658577	-10.065000	141.967606
15.658577	-10.065000	118.338974
16.658577	-10.065000	120.730263
17.658577	-10.065000	189.345276
18.658577	-10.065000	189.453812
19.658577	-10.065000	174.350555
20.658577	-10.065000	174.974930
21.658577	-10.065000	164.297791
22.658577	-10.065000	214.152420
23.658577	-10.065000	168.136520
24.658577	-10.065000	142.434464
-39.341423	-9.065000	0.639823
-38.341423	-9.065000	114.735474
-37.341423	-9.065000	123.071014
-36.341423	-9.065000	117.301483
-35.341423	-9.065000	133.286835
-34.341423	-9.065000	0.639823
-33.341423	-9.065000	0.639823
-32.341423	-9.065000	129.045029
-31.341423	-9.065000	134.318954
-30.341423	-9.065000	130.255600
-29.341423	-9.065000	107.371758
-28.341423	-9.065000	122.329460
-27.341423	-9.065000	118.197556
-26.341423	-9.065000	114.024582
-25.341423	-9.065000	166.035645
-24.341423	-9.065000	121.188721
-23.341423	-9.065000	16.975782
-22.341423	-9.065000	1752.688599
-21.341423	-9.065000	165.240829
-20.341423	-9.065000	184.883270
-19.341423	-9.065000	119.713554
-18.341423	-9.065000	171.752808
-17.341423	-9.065000	137.512344
-16.341423	-9.065000	132.105377
-15.341423	-9.065000	119.862808
-14.341423	-9.065000	121.563530
-13.341423	-9.065000	129.448334
-12.341423	-9.065000	157.320541
-11.341423	-9.065000	118.401825
-10.341423	-9.065000	0.639823
-9.341423	-9.065000	97.324539
-8.341423	-9.065000	112.894493
-7.341423	-9.065000	94.897369
-6.341423	-9.065000	195.714096
-5.341423	-9.065000	247.861923
-4.341423	-9.065000	219.267487
-3.341423	-9.065000	142.342117
-2.341423	-9.065000	150.281219
-1.341423	-9.065000	143.487045
-0.341423	-9.065000	125.538429
0.658577	-9.065000	141.210587
1.658577	-9.065000	110.836945
2.658577	-9.065000	24.645403
3.658577	-9.065000	116.203751
4.658577	-9.065000	179.497406
5.658577	-9.065000	0.639823
6.658577	-9.065000	112.018494
7.658577	-9.065000	103.702805
8.658577	-9.065000	122.604408
9.658577	-9.065000	0.639823
10.658577	-9.065000	2595.124023
11.658577	-9.065000	2295.044922
12.658577	-9.065000	145.090897
13.658577	-9.065000	219.287125
14.658577	-9.065000	164.410767
15.658577	-9.065000	123.475906
16.658577	-9.065000	185.040741
17.658577	-9.065000	161.343018
18.658577	-9.065000	200.905869
19.658577	-9.065000	208.450119
20.658577	-9.065000	467.656250
21.658577	-9.065000	126.549026
22.658577	-9.065000	174.708603
23.658577	-9.065000	164.583588
24.658577	-9.065000	99.085800
-39.341423	-8.065000	128.095688
-38.341423	-8.065000	138.994919
-37.341423	-8.065000	122.868835
-36.341423	-8.065000	0.639823
-35.341423	-8.065000	0.639823
-34.341423	-8.065000	143.769669
-33.341423	-8.065000	0.639823
-32.341423	-8.065000	1.510490
-31.341423	-8.065000	139.754959
-30.341423	-8.065000	131.053848
-29.341423	-8.065000	133.989365
-28.341423	-8.065000	130.774902
-27.341423	-8.065000	0.639823
-26.341423	-8.065000	105.688896
-25.341423	-8.065000	107.880119
-24.341423	-8.065000	176.548904
-23.341423	-8.065000	15.867777
-22.341423	-8.065000	118.736595
-21.341423	-8.065000	108.640526
-20.341423	-8.065000	200.688950
-19.341423	-8.065000	131.270660
-18.341423	-8.065000	118.986397
-17.341423	-8.065000	123.315514
-16.341423	-8.065000	130.857910
-15.341423	-8.065000	124.664879
-14.341423	-8.065000	151.817566
-13.341423	-8.065000	142.591629
-12.341423	-8.065000	149.103683
-11.341423	-8.065000	138.744690
-10.341423	-8.065000	1.017910
-9.341423	-8.065000	118.885284
-8.341423	-8.065000	1.769921
-7.341423	-8.065000	42.642326
-6.341423	-8.065000	101.589638
-5.341423	-8.065000	40.044266
-4.341423	-8.065000	165.973114
-3.341423	-8.065000	159.276398
-2.341423	-8.065000	127.048332
-1.341423	-8.065000	148.597092
-0.341423	-8.065000	131.106705
0.658577	-8.065000	151.870300
1.658577	-8.065000	56.167786
2.658577	-8.065000	163.649353
3.658577	-8.065000	126.372795
4.658577	-8.065000	136.384079
5.658577	-8.065000	130.014160
6.658577	-8.065000	116.299500
7.658577	-8.065000	121.589684
8.658577	-8.065000	33.247707
9.658577	-8.065000	24.493652
10.658577	-8.065000	2342.547852
11.658577	-8.065000	2595.124023
12.658577	-8.065000	262.290161
13.658577	-8.065000	132.438004
14.658577	-8.065000	123.328285
15.658577	-8.065000	110.117096
16.658577	-8.065000	143.188766
17.658577	-8.065000	165.177963
18.658577	-8.065000	196.038483
19.658577	-8.065000	182.076965
20.658577	-8.065000	146.004181
21.658577	-8.065000	187.247421
22.658577	-8.065000	199.717331
23.658577	-8.065000	132.511261
24.658577	-8.065000	68.114723
-39.341423	-7.065000	152.798019
-38.341423	-7.065000	1.547558
-37.341423	-7.065000	125.319038
-36.341423	-7.065000	107.745903
-35.341423	-7.065000	123.703102
-34.341423	-7.065000	132.460739
-33.341423	-7.065000	128.663483
-32.341423	-7.065000	116.737434
-31.341423	-7.065000	147.273300
-30.341423	-7.065000	131.788849
-29.341423	-7.065000	145.862564
-28.341423	-7.065000	124.570641
-27.341423	-7.065000	124.930496
-26.341423	-7.065000	112.287971
-25.341423	-7.065000	131.093491
-24.341423	-7.065000	136.261337
-23.341423	-7.065000	140.180054
-22.341423	-7.065000	72.838264
-21.341423	-7.065000	138.171295
-20.341423	-7.065000	124.089569
-19.341423	-7.065000	106.077980
-18.341423	-7.065000	100.173866
-17.341423	-7.065000	123.433655
-16.341423	-7.065000	131.444916
-15.341423	-7.065000	126.208923
-14.341423	-7.065000	138.799744
-13.341423	-7.065000	135.519379
-12.341423	-7.065000	138.562881
-11.341423	-7.065000	136.021408
-10.341423	-7.065000	124.277580
-9.341423	-7.065000	143.187012
-8.341423	-7.065000	116.359001
-7.341423	-7.065000	92.755943
-6.341423	-7.065000	190.587173
-5.341423	-7.065000	2012.569580
-4.341423	-7.065000	692.483459
-3.341423	-7.065000	117.122353
-2.341423	-7.065000	92.402016
-1.341423	-7.065000	35.115742
-0.341423	-7.065000	1432.753540
0.658577	-7.065000	1905.511963
1.658577	-7.065000	2079.976807
2.658577	-7.065000	118.991661
3.658577	-7.065000	138.017578
4.658577	-7.065000	122.707634
5.658577	-7.065000	113.882156
6.658577	-7.065000	97.621628
7.658577	-7.065000	47.990421
8.658577	-7.065000	0.639823
9.658577	-7.065000	1496.241821
10.658577	-7.065000	106.100075
11.658577	-7.065000	294.125732
12.658577	-7.065000	90.913162
13.658577	-7.065000	97.205673
14.658577	-7.065000	116.900696
15.658577	-7.065000	121.656349
16.658577	-7.065000	129.191864
17.658577	-7.065000	171.299606
18.658577	-7.065000	161.434525
19.658577	-7.065000	192.218231
20.658577	-7.065000	148.939377
21.658577	-7.065000	133.582993
22.658577	-7.065000	139.711258
23.658577	-7.065000	154.809753
24.658577	-7.065000	151.721817
-39.341423	-6.065000	142.960556
-38.341423	-6.065000	120.045609
-37.341423	-6.065000	0.639823
-36.341423	-6.065000	128.463486
-35.341423	-6.065000	110.694702
-34.341423	-6.065000	115.495766
-33.341423	-6.065000	129.792160
-32.341423	-6.065000	138.353912
-31.341423	-6.065000	124.483246
-30.341423	-6.065000	122.249916
-29.341423	-6.065000	114.384941
-28.341423	-6.065000	91.452805
-27.341423	-6.065000	122.250671
-26.341423	-6.065000	111.095245
-25.341423	-6.065000	0.639823
-24.341423	-6.065000	0.639823
-23.341423	-6.065000	147.514343
-22.341423	-6.065000	112.195335
-21.341423	-6.065000	105.121490
-20.341423	-6.065000	125.862236
-19.341423	-6.065000	141.322647
-18.341423	-6.065000	48.024971
-17.341423	-6.065000	122.548271
-16.341423	-6.065000	120.819542
-15.341423	-6.065000	145.886734
-14.341423	-6.065000	132.253998
-13.341423	-6.065000	158.174683
-12.341423	-6.065000	1.355339
-11.341423	-6.065000	1.856147
-10.341423	-6.065000	108.587143
-9.341423	-6.065000	126.265106
-8.341423	-6.065000	136.167130
-7.341423	-6.065000	103.741302
-6.341423	-6.065000	157.523483
-5.341423	-6.065000	88.628815
-4.341423	-6.065000	352.209625
-3.341423	-6.065000	160.762207
-2.341423	-6.065000	115.915596
-1.341423	-6.065000	454.329865
-0.341423	-6.065000	1298.751099
0.658577	-6.065000	1516.784180
1.658577	-6.065000	2595.124023
2.658577	-6.065000	141.209274
3.658577	-6.065000	119.691872
4.658577	-6.065000	120.653046
5.658577	-6.065000	118.541237
6.658577	-6.065000	135.997910
7.658577	-6.065000	119.014740
8.658577	-6.065000	650.461487
9.658577	-6.065000	29.079296
10.658577	-6.065000	153.409821
11.658577	-6.065000	142.001770
12.658577	-6.065000	122.965355
13.658577	-6.065000	131.990524
14.658577	-6.065000	135.224121
15.658577	-6.065000	124.863243
16.658577	-6.065000	153.476639
17.658577	-6.065000	216.178040
18.658577	-6.065000	165.004120
19.658577	-6.065000	138.849838
20.658577	-6.065000	188.158310
21.658577	-6.065000	158.582336
22.658577	-6.065000	158.806091
23.658577	-6.065000	142.092575
24.658577	-6.065000	185.682098
-39.341423	-5.065000	108.519066
-38.341423	-5.065000	132.543869
-37.341423	-5.065000	0.639823
-36.341423	-5.065000	113.644287
-35.341423	-5.065000	134.822998
-34.341423	-5.065000	1.301892
-33.341423	-5.065000	0.639823
-32.341423	-5.065000	114.173676
-31.341423	-5.065000	0.639823
-30.341423	-5.065000	0.639823
-29.341423	-5.065000	116.185051
-28.341423	-5.065000	117.608658
-27.341423	-5.065000	113.630844
-26.341423	-5.065000	121.110947
-25.341423	-5.065000	127.622765
-24.341423	-5.065000	118.518013
-23.341423	-5.065000	114.548653
-22.341423	-5.065000	111.268433
-21.341423	-5.065000	118.822662
-20.341423	-5.065000	92.914604
-19.341423	-5.065000	143.781555
-18.341423	-5.065000	173.148041
-17.341423	-5.065000	43.323212
-16.341423	-5.065000	112.359047
-15.341423	-5.065000	140.076355
-14.341423	-5.065000	139.813644
-13.341423	-5.065000	134.378036
-12.341423	-5.065000	130.630142
-11.341423	-5.065000	1.388448
-10.341423	-5.065000	146.651825
-9.341423	-5.065000	117.226158
-8.341423	-5.065000	130.752441
-7.341423	-5.065000	125.376007
-6.341423	-5.065000	117.156036
-5.341423	-5.065000	112.072708
-4.341423	-5.065000	384.109833
-3.341423	-5.065000	2595.124023
-2.341423	-5.065000	1.320233
-1.341423	-5.065000	65.733963
-0.341423	-5.065000	100.526733
0.658577	-5.065000	140.994537
1.658577	-5.065000	77.913940
2.658577	-5.065000	12.384145
3.658577	-5.065000	204.865143
4.658577	-5.065000	97.626213
5.658577	-5.065000	124.069359
6.658577	-5.065000	125.254448
7.658577	-5.065000	116.307236
8.658577	-5.065000	100.935287
9.658577	-5.065000	125.732941
10.658577	-5.065000	125.097519
11.658577	-5.065000	147.196686
12.658577	-5.065000	118.437210
13.658577	-5.065000	115.248451
14.658577	-5.065000	119.446396
15.658577	-5.065000	114.152863
16.658577	-5.065000	130.834854
17.658577	-5.065000	140.127457
18.658577	-5.065000	161.154434
19.658577	-5.065000	175.386093
20.658577	-5.065000	171.449570
21.658577	-5.065000	225.149048
22.658577	-5.065000	139.819977
23.658577	-5.065000	174.959778
24.658577	-5.065000	221.552765
-39.341423	-4.065000	545.122986
-38.341423	-4.065000	105.822182
-37.341423	-4.065000	114.160088
-36.341423	-4.065000	161.046188
-35.341423	-4.065000	121.212990
-34.341423	-4.065000	0.639823
-33.341423	-4.065000	0.639823
-32.341423	-4.065000	0.639823
-31.341423	-4.065000	89.028366
-30.341423	-4.065000	156.604950
-29.341423	-4.065000	114.511482
-28.341423	-4.065000	112.796585
-27.341423	-4.065000	107.459183
-26.341423	-4.065000	120.668449
-25.341423	-4.065000	120.119942
-24.341423	-4.065000	109.353203
-23.341423	-4.065000	119.209877
-22.341423	-4.065000	107.907753
-21.341423	-4.065000	123.801743
-20.341423	-4.065000	129.680313
-19.341423	-4.065000	99.339203
-18.341423	-4.065000	133.019943
-17.341423	-4.065000	54.631268
-16.341423	-4.065000	107.245796
-15.341423	-4.065000	143.886856
-14.341423	-4.065000	137.197510
-13.341423	-4.065000	0.639823
-12.341423	-4.065000	126.605042
-11.341423	-4.065000	178.858322
-10.341423	-4.065000	118.662018
-9.341423	-4.065000	135.428909
-8.341423	-4.065000	0.639823
-7.341423	-4.065000	110.043999
-6.341423	-4.065000	128.310547
-5.341423	-4.065000	128.693939
-4.341423	-4.065000	178.232300
-3.341423	-4.065000	1707.200073
-2.341423	-4.065000	0.639823
-1.341423	-4.065000	101.875229
-0.341423	-4.065000	145.130966
0.658577	-4.065000	111.115158
1.658577	-4.065000	79.632233
2.658577	-4.065000	278.711334
3.658577	-4.065000	98.602875
4.658577	-4.065000	127.483475
5.658577	-4.065000	107.000839
6.658577	-4.065000	106.780159
7.658577	-4.065000	123.166183
8.658577	-4.065000	146.219162
9.658577	-4.065000	105.497917
10.658577	-4.065000	103.252930
11.658577	-4.065000	135.371964
12.658577	-4.065000	115.912575
13.658577	-4.065000	109.538864
14.658577	-4.065000	112.083153
15.658577	-4.065000	117.632530
16.658577	-4.065000	97.416351
17.658577	-4.065000	106.535477
18.658577	-4.065000	143.251129
19.658577	-4.065000	138.923721
20.658577	-4.065000	142.646164
21.658577	-4.065000	113.738159
22.658577	-4.065000	115.207077
23.658577	-4.065000	136.681488
24.658577	-4.065000	190.524490
-39.341423	-3.065000	0.639823
-38.341423	-3.065000	1150.404785
-37.341423	-3.065000	145.268799
-36.341423	-3.065000	150.492233
-35.341423	-3.065000	124.537025
-34.341423	-3.065000	121.850807
-33.341423	-3.065000	112.745163
-32.341423	-3.065000	68.547379
-31.341423	-3.065000	113.334991
-30.341423	-3.065000	0.639823
-29.341423	-3.065000	35.478142
-28.341423	-3.065000	91.288986
-27.341423	-3.065000	148.946838
-26.341423	-3.065000	127.799622
-25.341423	-3.065000	159.797470
-24.341423	-3.065000	127.321869
-23.341423	-3.065000	107.654099
-22.341423	-3.065000	99.042351
-21.341423	-3.065000	121.845863
-20.341423	-3.065000	117.194374
-19.341423	-3.065000	132.211227
-18.341423	-3.065000	131.621948
-17.341423	-3.065000	123.271599
-16.341423	-3.065000	123.324738
-15.341423	-3.065000	134.822052
-14.341423	-3.065000	121.096092
-13.341423	-3.065000	131.889206
-12.341423	-3.065000	149.518906
-11.341423	-3.065000	151.466873
-10.341423	-3.065000	187.639526
-9.341423	-3.065000	146.908463
-8.341423	-3.065000	152.884857
-7.341423	-3.065000	209.212387
-6.341423	-3.065000	105.968315
-5.341423	-3.065000	104.240425
-4.341423	-3.065000	126.825554
-3.341423	-3.065000	102.272835
-2.341423	-3.065000	149.053711
-1.341423	-3.065000	0.639823
-0.341423	-3.065000	0.639823
0.658577	-3.065000	108.973228
1.658577	-3.065000	91.813362
2.658577	-3.065000	173.650253
3.658577	-3.065000	104.367485
4.658577	-3.065000	115.719200
5.658577	-3.065000	145.919617
6.658577	-3.065000	132.834106
7.658577	-3.065000	98.875595
8.658577	-3.065000	118.294395
9.658577	-3.065000	112.072739
10.658577	-3.065000	117.006111
11.658577	-3.065000	132.516891
12.658577	-3.065000	0.639823
13.658577	-3.065000	0.639823
14.658577	-3.065000	114.073090
15.658577	-3.065000	119.070381
16.658577	-3.065000	130.816055
17.658577	-3.065000	134.987274
18.658577	-3.065000	128.846558
19.658577	-3.065000	183.330963
20.658577	-3.065000	164.184357
21.658577	-3.065000	126.608719
22.658577	-3.065000	0.639823
23.658577	-3.065000	186.948517
24.658577	-3.065000	156.029785
-39.341423	-2.065000	64.387199
-38.341423	-2.065000	129.306335
-37.341423	-2.065000	99.764458
-36.341423	-2.065000	173.725616
-35.341423	-2.065000	100.545647
-34.341423	-2.065000	94.607346
-33.341423	-2.065000	140.017563
-32.341423	-2.065000	29.943609
-31.341423	-2.065000	107.989090
-30.341423	-2.065000	122.638855
-29.341423	-2.065000	1585.623047
-28.341423	-2.065000	59.214855
-27.341423	-2.065000	93.630188
-26.341423	-2.065000	115.563896
-25.341423	-2.065000	0.639823
-24.341423	-2.065000	124.430115
-23.341423	-2.065000	0.639823
-22.341423	-2.065000	114.211143
-21.341423	-2.065000	125.236267
-20.341423	-2.065000	116.593201
-19.341423	-2.065000	119.080070
-18.341423	-2.065000	152.422012
-17.341423	-2.065000	102.880768
-16.341423	-2.065000	132.868622
-15.341423	-2.065000	118.758568
-14.341423	-2.065000	115.059967
-13.341423	-2.065000	126.744637
-12.341423	-2.065000	157.745056
-11.341423	-2.065000	157.594650
-10.341423	-2.065000	123.428001
-9.341423	-2.065000	153.380753
-8.341423	-2.065000	156.148849
-7.341423	-2.065000	175.274704
-6.341423	-2.065000	146.852921
-5.341423	-2.065000	138.499802
-4.341423	-2.065000	155.423676
-3.341423	-2.065000	137.839798
-2.341423	-2.065000	121.105110
-1.341423	-2.065000	147.386322
-0.341423	-2.065000	0.639823
0.658577	-2.065000	123.944893
1.658577	-2.065000	107.859650
2.658577	-2.065000	10.784373
3.658577	-2.065000	104.087372
4.658577	-2.065000	128.049973
5.658577	-2.065000	130.257935
6.658577	-2.065000	111.103989
7.658577	-2.065000	131.407333
8.658577	-2.065000	130.224747
9.658577	-2.065000	115.523750
10.658577	-2.065000	125.515968
11.658577	-2.065000	130.484543
12.658577	-2.065000	128.676849
13.658577	-2.065000	0.639823
14.658577	-2.065000	1.487116
15.658577	-2.065000	125.276787
16.658577	-2.065000	126.085098
17.658577	-2.065000	134.615295
18.658577	-2.065000	130.965454
19.658577	-2.065000	133.797729
20.658577	-2.065000	146.705460
21.658577	-2.065000	37.363560
22.658577	-2.065000	184.493912
23.658577	-2.065000	157.413788
24.658577	-2.065000	155.345520
-39.341423	-1.065000	322.770508
-38.341423	-1.065000	0.639823
-37.341423	-1.065000	135.690292
-36.341423	-1.065000	152.555267
-35.341423	-1.065000	182.807388
-34.341423	-1.065000	169.142227
-33.341423	-1.065000	184.222397
-32.341423	-1.065000	156.614334
-31.341423	-1.065000	135.342438
-30.341423	-1.065000	143.235062
-29.341423	-1.065000	164.758774
-28.341423	-1.065000	2595.124023
-27.341423	-1.065000	45.343472
-26.341423	-1.065000	155.533524
-25.341423	-1.065000	126.269363
-24.341423	-1.065000	136.357529
-23.341423	-1.065000	109.453972
-22.341423	-1.065000	115.416656
-21.341423	-1.065000	103.699028
-20.341423	-1.065000	84.145569
-19.341423	-1.065000	62.581947
-18.341423	-1.065000	68.908340
-17.341423	-1.065000	201.663406
-16.341423	-1.065000	118.053307
-15.341423	-1.065000	119.539139
-14.341423	-1.065000	124.991516
-13.341423	-1.065000	138.090179
-12.341423	-1.065000	125.816063
-11.341423	-1.065000	134.881638
-10.341423	-1.065000	138.446716
-9.341423	-1.065000	159.868561
-8.341423	-1.065000	155.175461
-7.341423	-1.065000	150.908707
-6.341423	-1.065000	159.082245
-5.341423	-1.065000	122.885002
-4.341423	-1.065000	143.784943
-3.341423	-1.065000	198.945160
-2.341423	-1.065000	0.639823
-1.341423	-1.065000	0.639823
-0.341423	-1.065000	0.639823
0.658577	-1.065000	119.962471
1.658577	-1.065000	110.518753
2.658577	-1.065000	115.850891
3.658577	-1.065000	164.191818
4.658577	-1.065000	152.111984
5.658577	-1.065000	132.451126
6.658577	-1.065000	149.789825
7.658577	-1.065000	125.273476
8.658577	-1.065000	111.283524
9.658577	-1.065000	136.955078
10.658577	-1.065000	149.967377
11.658577	-1.065000	134.204773
12.658577	-1.065000	136.004639
13.658577	-1.065000	155.400879
14.658577	-1.065000	116.303024
15.658577	-1.065000	116.386292
16.658577	-1.065000	128.376251
17.658577	-1.065000	175.990692
18.658577	-1.065000	111.683838
19.658577	-1.065000	122.858208
20.658577	-1.065000	122.510658
21.658577	-1.065000	111.259041
22.658577	-1.065000	140.497009
23.658577	-1.065000	197.900085
24.658577	-1.065000	263.793365
-39.341423	-0.065000	284.663361
-38.341423	-0.065000	120.938385
-37.341423	-0.065000	771.602356
-36.341423	-0.065000	124.076912
-35.341423	-0.065000	10.391189
-34.341423	-0.065000	154.002075
-33.341423	-0.065000	145.949005
-32.341423	-0.065000	298.611176
-31.341423	-0.065000	340.718903
-30.341423	-0.065000	242.521805
-29.341423	-0.065000	296.168304
-28.341423	-0.065000	0.639823
-27.341423	-0.065000	1623.229370
-26.341423	-0.065000	183.632599
-25.341423	-0.065000	120.137665
-24.341423	-0.065000	131.435272
-23.341423	-0.065000	144.166138
-22.341423	-0.065000	73.804466
-21.341423	-0.065000	27.474760
-20.341423	-0.065000	128.671585
-19.341423	-0.065000	132.347015
-18.341423	-0.065000	109.231911
-17.341423	-0.065000	167.170013
-16.341423	-0.065000	113.617409
-15.341423	-0.065000	112.794395
-14.341423	-0.065000	119.560158
-13.341423	-0.065000	138.102829
-12.341423	-0.065000	132.923294
-11.341423	-0.065000	136.884979
-10.341423	-0.065000	156.783646
-9.341423	-0.065000	154.385498
-8.341423	-0.065000	155.433167
-7.341423	-0.065000	124.145462
-6.341423	-0.065000	140.851898
-5.341423	-0.065000	129.054840
-4.341423	-0.065000	161.367111
-3.341423	-0.065000	125.652611
-2.341423	-0.065000	124.160606
-1.341423	-0.065000	122.309364
-0.341423	-0.065000	0.639823
0.658577	-0.065000	0.639823
1.658577	-0.065000	100.378746
2.658577	-0.065000	126.957718
3.658577	-0.065000	133.690491
4.658577	-0.065000	187.502136
5.658577	-0.065000	131.998550
6.658577	-0.065000	84.320709
7.658577	-0.065000	119.686882
8.658577	-0.065000	111.270584
9.658577	-0.065000	117.102730
10.658577	-0.065000	153.945541
11.658577	-0.065000	129.431076
12.658577	-0.065000	0.639823
13.658577	-0.065000	0.639823
14.658577	-0.065000	124.020607
15.658577	-0.065000	133.908569
16.658577	-0.065000	124.982193
17.658577	-0.065000	153.493515
18.658577	-0.065000	94.151413
19.658577	-0.065000	77.006157
20.658577	-0.065000	108.153450
21.658577	-0.065000	131.199112
22.658577	-0.065000	256.639923
23.658577	-0.065000	192.515411
24.658577	-0.065000	174.487061
-39.341423	0.935000	63.722244
-38.341423	0.935000	1059.136108
-37.341423	0.935000	14.448093
-36.341423	0.935000	95.527687
-35.341423	0.935000	261.904785
-34.341423	0.935000	159.669128
-33.341423	0.935000	125.588974
-32.341423	0.935000	184.750046
-31.341423	0.935000	151.093231
-30.341423	0.935000	73.608505
-29.341423	0.935000	185.754913
-28.341423	0.935000	2595.124023
-27.341423	0.935000	143.097488
-26.341423	0.935000	142.915192
-25.341423	0.935000	6.425840
-24.341423	0.935000	128.573120
-23.341423	0.935000	128.853226
-22.341423	0.935000	100.263130
-21.341423	0.935000	124.214928
-20.341423	0.935000	103.817596
-19.341423	0.935000	108.076340
-18.341423	0.935000	134.304733
-17.341423	0.935000	144.419235
-16.341423	0.935000	112.356049
-15.341423	0.935000	153.438263
-14.341423	0.935000	0.639823
-13.341423	0.935000	133.494965
-12.341423	0.935000	0.639823
-11.341423	0.935000	0.639823
-10.341423	0.935000	139.195526
-9.341423	0.935000	149.732391
-8.341423	0.935000	120.746613
-7.341423	0.935000	194.950974
-6.341423	0.935000	145.258240
-5.341423	0.935000	0.639823
-4.341423	0.935000	114.208954
-3.341423	0.935000	125.248550
-2.341423	0.935000	127.038925
-1.341423	0.935000	125.400955
-0.341423	0.935000	115.088814
0.658577	0.935000	129.876495
1.658577	0.935000	128.279282
2.658577	0.935000	163.518494
3.658577	0.935000	145.598892
4.658577	0.935000	128.017014
5.658577	0.935000	120.212456
6.658577	0.935000	0.639823
7.658577	0.935000	119.253174
8.658577	0.935000	118.083351
9.658577	0.935000	119.814926
10.658577	0.935000	129.064713
11.658577	0.935000	153.617172
12.658577	0.935000	115.078407
13.658577	0.935000	127.085243
14.658577	0.935000	126.548431
15.658577	0.935000	115.831841
16.658577	0.935000	158.770615
17.658577	0.935000	131.062317
18.658577	0.935000	124.297470
19.658577	0.935000	103.733940
20.658577	0.935000	125.307205
21.658577	0.935000	120.491280
22.658577	0.935000	123.392036
23.658577	0.935000	105.311470
24.658577	0.935000	161.390991
-39.341423	1.935000	266.982666
-38.341423	1.935000	125.876991
-37.341423	1.935000	116.120308
-36.341423	1.935000	119.009148
-35.341423	1.935000	128.209381
-34.341423	1.935000	146.308029
-33.341423	1.935000	101.505928
-32.341423	1.935000	96.519310
-31.341423	1.935000	146.908279
-30.341423	1.935000	139.526077
-29.341423	1.935000	124.249870
-28.341423	1.935000	110.984467
-27.341423	1.935000	49.115593
-26.341423	1.935000	116.400238
-25.341423	1.935000	0.639823
-24.341423	1.935000	154.895035
-23.341423	1.935000	167.438980
-22.341423	1.935000	125.411621
-21.341423	1.935000	117.703957
-20.341423	1.935000	122.807747
-19.341423	1.935000	118.730644
-18.341423	1.935000	34.276272
-17.341423	1.935000	0.639823
-16.341423	1.935000	63.379658
-15.341423	1.935000	209.103058
-14.341423	1.935000	122.404556
-13.341423	1.935000	143.196243
-12.341423	1.935000	0.639823
-11.341423	1.935000	127.121231
-10.341423	1.935000	121.499306
-9.341423	1.935000	150.143356
-8.341423	1.935000	130.868225
-7.341423	1.935000	147.063934
-6.341423	1.935000	158.670685
-5.341423	1.935000	114.958305
-4.341423	1.935000	0.639823
-3.341423	1.935000	122.184753
-2.341423	1.935000	130.540649
-1.341423	1.935000	122.162109
-0.341423	1.935000	121.565681
0.658577	1.935000	107.009987
1.658577	1.935000	224.804886
2.658577	1.935000	141.006104
3.658577	1.935000	174.816437
4.658577	1.935000	154.548431
5.658577	1.935000	119.078583
6.658577	1.935000	111.600677
7.658577	1.935000	124.082794
8.658577	1.935000	139.760513
9.658577	1.935000	0.639823
10.658577	1.935000	138.526367
11.658577	1.935000	117.853310
12.658577	1.935000	0.639823
13.658577	1.935000	0.639823
14.658577	1.935000	102.009872
15.658577	1.935000	137.307037
16.658577	1.935000	144.394196
17.658577	1.935000	129.978546
18.658577	1.935000	136.402527
19.658577	1.935000	126.755844
20.658577	1.935000	151.260666
21.658577	1.935000	129.831375
22.658577	1.935000	119.891136
23.658577	1.935000	124.737480
24.658577	1.935000	116.464775
-39.341423	2.935000	706.360901
-38.341423	2.935000	169.139999
-37.341423	2.935000	111.942383
-36.341423	2.935000	140.532425
-35.341423	2.935000	146.841324
-34.341423	2.935000	195.293777
-33.341423	2.935000	143.036575
-32.341423	2.935000	123.896690
-31.341423	2.935000	132.036179
-30.341423	2.935000	130.811005
-29.341423	2.935000	129.476654
-28.341423	2.935000	146.740921
-27.341423	2.935000	116.820236
-26.341423	2.935000	119.537270
-25.341423	2.935000	125.737747
-24.341423	2.935000	215.415924
-23.341423	2.935000	105.288651
-22.341423	2.935000	137.465912
-21.341423	2.935000	123.615631
-20.341423	2.935000	136.978867
-19.341423	2.935000	115.480301
-18.341423	2.935000	106.176178
-17.341423	2.935000	300.699219
-16.341423	2.935000	0.639823
-15.341423	2.935000	144.661667
-14.341423	2.935000	116.539528
-13.341423	2.935000	110.341805
-12.341423	2.935000	124.893379
-11.341423	2.935000	117.591049
-10.341423	2.935000	0.639823
-9.341423	2.935000	105.593452
-8.341423	2.935000	111.449463
-7.341423	2.935000	128.468506
-6.341423	2.935000	134.892990
-5.341423	2.935000	0.639823
-4.341423	2.935000	0.639823
-3.341423	2.935000	108.441933
-2.341423	2.935000	0.639823
-1.341423	2.935000	111.502762
-0.341423	2.935000	115.253120
0.658577	2.935000	113.439064
1.658577	2.935000	119.706100
2.658577	2.935000	137.111984
3.658577	2.935000	158.711395
4.658577	2.935000	129.766876
5.658577	2.935000	150.118881
6.658577	2.935000	93.655441
7.658577	2.935000	136.362778
8.658577	2.935000	111.440506
9.658577	2.935000	128.281708
10.658577	2.935000	0.639823
11.658577	2.935000	113.128319
12.658577	2.935000	126.953995
13.658577	2.935000	0.639823
14.658577	2.935000	118.598534
15.658577	2.935000	149.064865
16.658577	2.935000	149.474030
17.658577	2.935000	120.537247
18.658577	2.935000	144.150253
19.658577	2.935000	28.900866
20.658577	2.935000	122.988686
21.658577	2.935000	129.152054
22.658577	2.935000	117.382446
23.658577	2.935000	111.315948
24.658577	2.935000	180.058624
-39.341423	3.935000	135.621490
-38.341423	3.935000	135.792175
-37.341423	3.935000	112.417091
-36.341423	3.935000	158.551361
-35.341423	3.935000	146.607635
-34.341423	3.935000	201.471130
-33.341423	3.935000	204.077652
-32.341423	3.935000	128.523651
-31.341423	3.935000	107.553322
-30.341423	3.935000	138.041534
-29.341423	3.935000	131.382202
-28.341423	3.935000	124.392265
-27.341423	3.935000	142.563080
-26.341423	3.935000	139.718094
-25.341423	3.935000	127.111404
-24.341423	3.935000	201.271057
-23.341423	3.935000	165.847610
-22.341423	3.935000	183.869110
-21.341423	3.935000	0.639823
-20.341423	3.935000	118.384903
-19.341423	3.935000	116.127151
-18.341423	3.935000	150.435684
-17.341423	3.935000	148.488770
-16.341423	3.935000	119.282104
-15.341423	3.935000	120.729385
-14.341423	3.935000	390.237183
-13.341423	3.935000	71.429955
-12.341423	3.935000	138.399841
-11.341423	3.935000	0.639823
-10.341423	3.935000	107.127823
-9.341423	3.935000	117.478394
-8.341423	3.935000	130.396774
-7.341423	3.935000	122.905716
-6.341423	3.935000	140.560837
-5.341423	3.935000	98.494957
-4.341423	3.935000	75.875526
-3.341423	3.935000	98.974113
-2.341423	3.935000	131.088608
-1.341423	3.935000	0.639823
-0.341423	3.935000	0.639823
0.658577	3.935000	131.104675
1.658577	3.935000	129.106232
2.658577	3.935000	142.598038
3.658577	3.935000	167.678192
4.658577	3.935000	124.122101
5.658577	3.935000	119.198517
6.658577	3.935000	123.436234
7.658577	3.935000	110.868126
8.658577	3.935000	123.137726
9.658577	3.935000	104.646385
10.658577	3.935000	162.969162
11.658577	3.935000	153.862228
12.658577	3.935000	116.881569
13.658577	3.935000	139.983841
14.658577	3.935000	136.370071
15.658577	3.935000	180.062820
16.658577	3.935000	168.642960
17.658577	3.935000	108.588165
18.658577	3.935000	0.639823
19.658577	3.935000	0.639823
20.658577	3.935000	0.639823
21.658577	3.935000	113.826950
22.658577	3.935000	122.577423
23.658577	3.935000	124.979462
24.658577	3.935000	164.381912
-39.341423	4.935000	0.639823
-38.341423	4.935000	120.692238
-37.341423	4.935000	0.639823
-36.341423	4.935000	119.193108
-35.341423	4.935000	121.592384
-34.341423	4.935000	118.895393
-33.341423	4.935000	195.972168
-32.341423	4.935000	144.938568
-31.341423	4.935000	118.248398
-30.341423	4.935000	132.614288
-29.341423	4.935000	105.383415
-28.341423	4.935000	102.657303
-27.341423	4.935000	128.496857
-26.341423	4.935000	114.609261
-25.341423	4.935000	122.721954
-24.341423	4.935000	0.969876
-23.341423	4.935000	174.844040
-22.341423	4.935000	144.474457
-21.341423	4.935000	140.124084
-20.341423	4.935000	152.493286
-19.341423	4.935000	129.528107
-18.341423	4.935000	108.411598
-17.341423	4.935000	128.282333
-16.341423	4.935000	145.308182
-15.341423	4.935000	119.992882
-14.341423	4.935000	139.563278
-13.341423	4.935000	325.498901
-12.341423	4.935000	126.771683
-11.341423	4.935000	124.890976
-10.341423	4.935000	133.015396
-9.341423	4.935000	110.417358
-8.341423	4.935000	123.223877
-7.341423	4.935000	125.220879
-6.341423	4.935000	106.802139
-5.341423	4.935000	45.469738
-4.341423	4.935000	41.952797
-3.341423	4.935000	0.639823
-2.341423	4.935000	0.639823
-1.341423	4.935000	111.189072
-0.341423	4.935000	0.639823
0.658577	4.935000	0.639823
1.658577	4.935000	117.583305
2.658577	4.935000	118.234306
3.658577	4.935000	123.225189
4.658577	4.935000	121.903015
5.658577	4.935000	128.017929
6.658577	4.935000	0.639823
7.658577	4.935000	127.222092
8.658577	4.935000	113.710037
9.658577	4.935000	114.160782
10.658577	4.935000	149.098877
11.658577	4.935000	138.169113
12.658577	4.935000	150.096283
13.658577	4.935000	134.760468
14.658577	4.935000	110.347099
15.658577	4.935000	0.639823
16.658577	4.935000	118.594269
17.658577	4.935000	115.645882
18.658577	4.935000	0.639823
19.658577	4.935000	0.639823
20.658577	4.935000	109.075729
21.658577	4.935000	124.310783
22.658577	4.935000	0.639823
23.658577	4.935000	157.280685
24.658577	4.935000	187.491852
-39.341423	5.935000	132.669861
-38.341423	5.935000	140.877487
-37.341423	5.935000	0.639823
-36.341423	5.935000	134.577759
-35.341423	5.935000	147.764496
-34.341423	5.935000	150.208618
-33.341423	5.935000	146.928268
-32.341423	5.935000	138.967087
-31.341423	5.935000	179.109161
-30.341423	5.935000	25.970034
-29.341423	5.935000	86.437675
-28.341423	5.935000	1122.712158
-27.341423	5.935000	74.678864
-26.341423	5.935000	110.957222
-25.341423	5.935000	127.133766
-24.341423	5.935000	119.723190
-23.341423	5.935000	121.361176
-22.341423	5.935000	158.529205
-21.341423	5.935000	197.634567
-20.341423	5.935000	144.221344
-19.341423	5.935000	0.639823
-18.341423	5.935000	137.643265
-17.341423	5.935000	0.639823
-16.341423	5.935000	148.719727
-15.341423	5.935000	142.472855
-14.341423	5.935000	122.623795
-13.341423	5.935000	112.891991
-12.341423	5.935000	95.758842
-11.341423	5.935000	118.367516
-10.341423	5.935000	103.796638
-9.341423	5.935000	0.639823
-8.341423	5.935000	115.527725
-7.341423	5.935000	170.453186
-6.341423	5.935000	124.959816
-5.341423	5.935000	15.645391
-4.341423	5.935000	227.501984
-3.341423	5.935000	122.993889
-2.341423	5.935000	123.913261
-1.341423	5.935000	153.769348
-0.341423	5.935000	112.624016
0.658577	5.935000	0.639823
1.658577	5.935000	0.639823
2.658577	5.935000	130.255936
3.658577	5.935000	109.999001
4.658577	5.935000	122.091667
5.658577	5.935000	129.636993
6.658577	5.935000	148.488159
7.658577	5.935000	157.478210
8.658577	5.935000	141.402130
9.658577	5.935000	113.869972
10.658577	5.935000	122.442940
11.658577	5.935000	118.545700
12.658577	5.935000	148.128235
13.658577	5.935000	113.941917
14.658577	5.935000	125.823555
15.658577	5.935000	2.148274
16.658577	5.935000	101.245255
17.658577	5.935000	173.424103
18.658577	5.935000	129.828934
19.658577	5.935000	110.668900
20.658577	5.935000	120.895844
21.658577	5.935000	117.932709
22.658577	5.935000	117.893349
23.658577	5.935000	145.049591
24.658577	5.935000	171.551117
-39.341423	6.935000	120.542953
-38.341423	6.935000	0.639823
-37.341423	6.935000	138.278351
-36.341423	6.935000	0.639823
-35.341423	6.935000	157.318878
-34.341423	6.935000	121.562843
-33.341423	6.935000	139.609894
-32.341423	6.935000	108.036697
-31.341423	6.935000	126.886162
-30.341423	6.935000	98.559822
-29.341423	6.935000	138.859253
-28.341423	6.935000	64.811096
-27.341423	6.935000	140.067154
-26.341423	6.935000	122.798347
-25.341423	6.935000	129.204071
-24.341423	6.935000	0.639823
-23.341423	6.935000	125.150238
-22.341423	6.935000	154.510361
-21.341423	6.935000	124.080292
-20.341423	6.935000	0.639823
-19.341423	6.935000	0.639823
-18.341423	6.935000	124.158791
-17.341423	6.935000	121.887611
-16.341423	6.935000	123.440407
-15.341423	6.935000	141.174133
-14.341423	6.935000	136.380310
-13.341423	6.935000	104.854515
-12.341423	6.935000	120.244293
-11.341423	6.935000	137.960007
-10.341423	6.935000	122.272652
-9.341423	6.935000	132.530533
-8.341423	6.935000	115.098015
-7.341423	6.935000	129.139404
-6.341423	6.935000	139.180054
-5.341423	6.935000	101.366928
-4.341423	6.935000	139.055664
-3.341423	6.935000	130.243698
-2.341423	6.935000	122.393166
-1.341423	6.935000	0.639823
-0.341423	6.935000	120.160469
0.658577	6.935000	0.639823
1.658577	6.935000	113.881004
2.658577	6.935000	108.416969
3.658577	6.935000	113.043549
4.658577	6.935000	136.006714
5.658577	6.935000	152.846375
6.658577	6.935000	123.905273
7.658577	6.935000	164.660919
8.658577	6.935000	146.823135
9.658577	6.935000	120.202652
10.658577	6.935000	0.639823
11.658577	6.935000	117.158600
12.658577	6.935000	113.054100
13.658577	6.935000	127.636444
14.658577	6.935000	168.774292
15.658577	6.935000	126.965073
16.658577	6.935000	98.465584
17.658577	6.935000	173.779602
18.658577	6.935000	111.253593
19.658577	6.935000	120.916954
20.658577	6.935000	101.479828
21.658577	6.935000	105.519676
22.658577	6.935000	135.449280
23.658577	6.935000	121.007057
24.658577	6.935000	135.315201
-39.341423	7.935000	124.942780
-38.341423	7.935000	132.547073
-37.341423	7.935000	127.141815
-36.341423	7.935000	129.114243
-35.341423	7.935000	129.560318
-34.341423	7.935000	142.225235
-33.341423	7.935000	122.948647
-32.341423	7.935000	140.403046
-31.341423	7.935000	129.325882
-30.341423	7.935000	126.946922
-29.341423	7.935000	123.962379
-28.341423	7.935000	103.323753
-27.341423	7.935000	137.777252
-26.341423	7.935000	157.391571
-25.341423	7.935000	139.708267
-24.341423	7.935000	128.196533
-23.341423	7.935000	135.884247
-22.341423	7.935000	162.815125
-21.341423	7.935000	170.778198
-20.341423	7.935000	149.622162
-19.341423	7.935000	133.452484
-18.341423	7.935000	121.405846
-17.341423	7.935000	142.073685
-16.341423	7.935000	122.867546
-15.341423	7.935000	127.153290
-14.341423	7.935000	150.512589
-13.341423	7.935000	173.479660
-12.341423	7.935000	118.347969
-11.341423	7.935000	120.832062
-10.341423	7.935000	182.149216
-9.341423	7.935000	119.815819
-8.341423	7.935000	140.872894
-7.341423	7.935000	156.284943
-6.341423	7.935000	125.341240
-5.341423	7.935000	117.511032
-4.341423	7.935000	121.506226
-3.341423	7.935000	129.387619
-2.341423	7.935000	0.639823
-1.341423	7.935000	121.268990
-0.341423	7.935000	151.174271
0.658577	7.935000	0.639823
1.658577	7.935000	112.188942
2.658577	7.935000	120.855881
3.658577	7.935000	145.079117
4.658577	7.935000	161.015106
5.658577	7.935000	124.396996
6.658577	7.935000	154.697739
7.658577	7.935000	133.588242
8.658577	7.935000	125.154472
9.658577	7.935000	128.693665
10.658577	7.935000	0.639823
11.658577	7.935000	118.772842
12.658577	7.935000	0.639823
13.658577	7.935000	121.827950
14.658577	7.935000	119.728905
15.658577	7.935000	148.392471
16.658577	7.935000	113.623535
17.658577	7.935000	130.682632
18.658577	7.935000	121.007347
19.658577	7.935000	98.495705
20.658577	7.935000	98.129959
21.658577	7.935000	5.286248
22.658577	7.935000	108.087799
23.658577	7.935000	135.695908
24.658577	7.935000	120.525314
-39.341423	8.935000	0.639823
-38.341423	8.935000	0.639823
-37.341423	8.935000	122.254486
-36.341423	8.935000	125.952713
-35.341423	8.935000	112.114761
-34.341423	8.935000	141.384781
-33.341423	8.935000	139.803894
-32.341423	8.935000	129.443298
-31.341423	8.935000	127.497551
-30.341423	8.935000	116.397690
-29.341423	8.935000	130.803864
-28.341423	8.935000	118.141182
-27.341423	8.935000	157.968796
-26.341423	8.935000	134.813705
-25.341423	8.935000	127.643814
-24.341423	8.935000	130.878326
-23.341423	8.935000	139.320618
-22.341423	8.935000	189.827438
-21.341423	8.935000	138.775925
-20.341423	8.935000	142.954208
-19.341423	8.935000	119.270958
-18.341423	8.935000	155.255753
-17.341423	8.935000	135.336212
-16.341423	8.935000	127.871796
-15.341423	8.935000	1.352196
-14.341423	8.935000	126.556206
-13.341423	8.935000	137.663544
-12.341423	8.935000	126.344093
-11.341423	8.935000	150.335419
-10.341423	8.935000	135.924225
-9.341423	8.935000	173.681366
-8.341423	8.935000	139.063751
-7.341423	8.935000	137.332260
-6.341423	8.935000	109.091782
-5.341423	8.935000	164.299606
-4.341423	8.935000	139.922409
-3.341423	8.935000	117.826691
-2.341423	8.935000	110.856621
-1.341423	8.935000	0.639823
-0.341423	8.935000	0.639823
0.658577	8.935000	0.639823
1.658577	8.935000	131.834167
2.658577	8.935000	111.227440
3.658577	8.935000	145.929596
4.658577	8.935000	125.333885
5.658577	8.935000	132.638275
6.658577	8.935000	130.718521
7.658577	8.935000	108.048973
8.658577	8.935000	144.048477
9.658577	8.935000	111.068665
10.658577	8.935000	128.765289
11.658577	8.935000	123.195412
12.658577	8.935000	124.304405
13.658577	8.935000	80.335976
14.658577	8.935000	98.043259
15.658577	8.935000	117.097092
16.658577	8.935000	153.603226
17.658577	8.935000	103.383652
18.658577	8.935000	192.323334
19.658577	8.935000	666.821838
20.658577	8.935000	395.714844
21.658577	8.935000	58.030994
22.658577	8.935000	92.663239
23.658577	8.935000	82.129494
24.658577	8.935000	117.504166
-39.341423	9.935000	123.163612
-38.341423	9.935000	163.061218
-37.341423	9.935000	128.991852
-36.341423	9.935000	139.303879
-35.341423	9.935000	151.041367
-34.341423	9.935000	0.639823
-33.341423	9.935000	118.978249
-32.341423	9.935000	0.639823
-31.341423	9.935000	0.639823
-30.341423	9.935000	146.375702
-29.341423	9.935000	108.468132
-28.341423	9.935000	107.711571
-27.341423	9.935000	134.606659
-26.341423	9.935000	102.071747
-25.341423	9.935000	146.609650
-24.341423	9.935000	103.135300
-23.341423	9.935000	118.835182
-22.341423	9.935000	139.457794
-21.341423	9.935000	108.412910
-20.341423	9.935000	120.691284
-19.341423	9.935000	128.525909
-18.341423	9.935000	125.212990
-17.341423	9.935000	126.555336
-16.341423	9.935000	0.891662
-15.341423	9.935000	121.209496
-14.341423	9.935000	115.502464
-13.341423	9.935000	105.017899
-12.341423	9.935000	157.544678
-11.341423	9.935000	130.016327
-10.341423	9.935000	179.705032
-9.341423	9.935000	165.136414
-8.341423	9.935000	149.662094
-7.341423	9.935000	115.794594
-6.341423	9.935000	111.664017
-5.341423	9.935000	0.639823
-4.341423	9.935000	123.244064
-3.341423	9.935000	105.834641
-2.341423	9.935000	112.262764
-1.341423	9.935000	0.639823
-0.341423	9.935000	107.028160
0.658577	9.935000	124.903786
1.658577	9.935000	152.341217
2.658577	9.935000	138.907364
3.658577	9.935000	146.622818
4.658577	9.935000	129.633987
5.658577	9.935000	174.972076
6.658577	9.935000	252.780075
7.658577	9.935000	152.605255
8.658577	9.935000	169.652115
9.658577	9.935000	125.946404
10.658577	9.935000	117.971237
11.658577	9.935000	151.068680
12.658577	9.935000	155.192444
13.658577	9.935000	104.211296
14.658577	9.935000	1518.090088
15.658577	9.935000	2379.085205
16.658577	9.935000	2595.124023
17.658577	9.935000	1844.338501
18.658577	9.935000	2595.124023
19.658577	9.935000	32.770168
20.658577	9.935000	55.823387
21.658577	9.935000	116.041351
22.658577	9.935000	65.261635
23.658577	9.935000	34.292488
24.658577	9.935000	142.583237
-39.341423	10.935000	144.162338
-38.341423	10.935000	144.459778
-37.341423	10.935000	138.933945
-36.341423	10.935000	156.214859
-35.341423	10.935000	129.339386
-34.341423	10.935000	150.048904
-33.341423	10.935000	108.854607
-32.341423	10.935000	148.811157
-31.341423	10.935000	133.350555
-30.341423	10.935000	0.639823
-29.341423	10.935000	0.639823
-28.341423	10.935000	0.639823
-27.341423	10.935000	137.527695
-26.341423	10.935000	116.596863
-25.341423	10.935000	80.075592
-24.341423	10.935000	1486.703491
-23.341423	10.935000	173.206100
-22.341423	10.935000	127.906433
-21.341423	10.935000	103.419464
-20.341423	10.935000	96.307510
-19.341423	10.935000	119.808014
-18.341423	10.935000	132.564194
-17.341423	10.935000	114.509216
-16.341423	10.935000	146.204117
-15.341423	10.935000	123.610817
-14.341423	10.935000	116.289520
-13.341423	10.935000	138.673935
-12.341423	10.935000	179.458572
-11.341423	10.935000	141.517578
-10.341423	10.935000	160.210068
-9.341423	10.935000	164.710114
-8.341423	10.935000	83.633957
-7.341423	10.935000	120.101173
-6.341423	10.935000	114.571381
-5.341423	10.935000	0.639823
-4.341423	10.935000	116.726074
-3.341423	10.935000	105.668304
-2.341423	10.935000	127.675629
-1.341423	10.935000	108.282166
-0.341423	10.935000	114.016541
0.658577	10.935000	134.185165
1.658577	10.935000	150.841965
2.658577	10.935000	149.875458
3.658577	10.935000	139.410385
4.658577	10.935000	180.851379
5.658577	10.935000	195.474335
6.658577	10.935000	102.257866
7.658577	10.935000	122.697311
8.658577	10.935000	163.635345
9.658577	10.935000	232.114136
10.658577	10.935000	145.779663
11.658577	10.935000	147.734726
12.658577	10.935000	121.286743
13.658577	10.935000	32.403118
14.658577	10.935000	2595.124023
15.658577	10.935000	2595.124023
16.658577	10.935000	52.217422
17.658577	10.935000	2595.124023
18.658577	10.935000	2595.124023
19.658577	10.935000	2595.124023
20.658577	10.935000	108.108017
21.658577	10.935000	132.910034
22.658577	10.935000	117.925812
23.658577	10.935000	79.387672
24.658577	10.935000	147.859863
-39.341423	11.935000	0.639823
-38.341423	11.935000	123.298615
-37.341423	11.935000	5.206467
-36.341423	11.935000	121.000092
-35.341423	11.935000	107.171616
-34.341423	11.935000	168.510818
-33.341423	11.935000	139.426498
-32.341423	11.935000	156.177872
-31.341423	11.935000	0.639823
-30.341423	11.935000	137.644638
-29.341423	11.935000	121.016647
-28.341423	11.935000	110.714653
-27.341423	11.935000	112.570625
-26.341423	11.935000	141.224930
-25.341423	11.935000	97.117516
-24.341423	11.935000	1103.545166
-23.341423	11.935000	103.586853
-22.341423	11.935000	148.961105
-21.341423	11.935000	125.828300
-20.341423	11.935000	147.565842
-19.341423	11.935000	113.820045
-18.341423	11.935000	118.953926
-17.341423	11.935000	116.745735
-16.341423	11.935000	142.656189
-15.341423	11.935000	108.556915
-14.341423	11.935000	121.863701
-13.341423	11.935000	0.639823
-12.341423	11.935000	184.200684
-11.341423	11.935000	149.282822
-10.341423	11.935000	219.264191
-9.341423	11.935000	143.790115
-8.341423	11.935000	116.246162
-7.341423	11.935000	97.825859
-6.341423	11.935000	150.600204
-5.341423	11.935000	112.485153
-4.341423	11.935000	127.170151
-3.341423	11.935000	129.722702
-2.341423	11.935000	127.039665
-1.341423	11.935000	114.471878
-0.341423	11.935000	120.694679
0.658577	11.935000	150.710098
1.658577	11.935000	147.371063
2.658577	11.935000	175.795364
3.658577	11.935000	213.675110
4.658577	11.935000	122.283066
5.658577	11.935000	144.345123
6.658577	11.935000	89.974205
7.658577	11.935000	0.639823
8.658577	11.935000	130.457397
9.658577	11.935000	115.499756
10.658577	11.935000	103.893326
11.658577	11.935000	151.094543
12.658577	11.935000	115.104225
13.658577	11.935000	97.086372
14.658577	11.935000	1902.865112
15.658577	11.935000	2595.124023
16.658577	11.935000	2595.124023
17.658577	11.935000	156.593765
18.658577	11.935000	112.895744
19.658577	11.935000	38.252899
20.658577	11.935000	127.436623
21.658577	11.935000	107.187805
22.658577	11.935000	106.835793
23.658577	11.935000	116.276665
24.658577	11.935000	116.374077
-39.341423	12.935000	134.590912
-38.341423	12.935000	144.987015
-37.341423	12.935000	124.389732
-36.341423	12.935000	113.436935
-35.341423	12.935000	116.088196
-34.341423	12.935000	120.684532
-33.341423	12.935000	119.320686
-32.341423	12.935000	130.967850
-31.341423	12.935000	134.684555
-30.341423	12.935000	0.639823
-29.341423	12.935000	96.987961
-28.341423	12.935000	99.446655
-27.341423	12.935000	139.454010
-26.341423	12.935000	75.887100
-25.341423	12.935000	1308.706177
-24.341423	12.935000	99.305496
-23.341423	12.935000	125.416069
-22.341423	12.935000	129.910736
-21.341423	12.935000	120.049454
-20.341423	12.935000	172.972855
-19.341423	12.935000	144.610504
-18.341423	12.935000	114.765488
-17.341423	12.935000	113.673523
-16.341423	12.935000	146.283249
-15.341423	12.935000	127.739792
-14.341423	12.935000	128.061142
-13.341423	12.935000	118.881622
-12.341423	12.935000	189.777267
-11.341423	12.935000	191.020844
-10.341423	12.935000	170.941208
-9.341423	12.935000	129.247452
-8.341423	12.935000	183.750061
-7.341423	12.935000	100.235397
-6.341423	12.935000	44.566051
-5.341423	12.935000	124.444405
-4.341423	12.935000	108.506042
-3.341423	12.935000	135.420242
-2.341423	12.935000	103.056236
-1.341423	12.935000	129.941360
-0.341423	12.935000	131.521729
0.658577	12.935000	119.219582
1.658577	12.935000	172.336105
2.658577	12.935000	113.165535
3.658577	12.935000	141.080429
4.658577	12.935000	94.781013
5.658577	12.935000	121.922295
6.658577	12.935000	132.447617
7.658577	12.935000	120.354210
8.658577	12.935000	158.316788
9.658577	12.935000	137.242310
10.658577	12.935000	140.756393
11.658577	12.935000	112.255241
12.658577	12.935000	126.527000
13.658577	12.935000	111.297272
14.658577	12.935000	0.702268
15.658577	12.935000	2595.124023
16.658577	12.935000	2595.124023
17.658577	12.935000	2442.787842
18.658577	12.935000	7.532866
19.658577	12.935000	2595.124023
20.658577	12.935000	2595.124023
21.658577	12.935000	2204.472900
22.658577	12.935000	95.070076
23.658577	12.935000	120.071831
24.658577	12.935000	58.119209
-39.341423	13.935000	113.339569
-38.341423	13.935000	143.594849
-37.341423	13.935000	137.615814
-36.341423	13.935000	136.323730
-35.341423	13.935000	0.639823
-34.341423	13.935000	0.639823
-33.341423	13.935000	121.859077
-32.341423	13.935000	141.829453
-31.341423	13.935000	132.646317
-30.341423	13.935000	0.639823
-29.341423	13.935000	0.639823
-28.341423	13.935000	127.036781
-27.341423	13.935000	121.289734
-26.341423	13.935000	106.083557
-25.341423	13.935000	134.734726
-24.341423	13.935000	122.302078
-23.341423	13.935000	130.065613
-22.341423	13.935000	123.249741
-21.341423	13.935000	122.872345
-20.341423	13.935000	0.639823
-19.341423	13.935000	153.138611
-18.341423	13.935000	125.042030
-17.341423	13.935000	114.604790
-16.341423	13.935000	115.474640
-15.341423	13.935000	127.847221
-14.341423	13.935000	121.092712
-13.341423	13.935000	120.787071
-12.341423	13.935000	118.965729
-11.341423	13.935000	120.572151
-10.341423	13.935000	145.296585
-9.341423	13.935000	132.608246
-8.341423	13.935000	137.441269
-7.341423	13.935000	134.738953
-6.341423	13.935000	111.886536
-5.341423	13.935000	135.097198
-4.341423	13.935000	118.916672
-3.341423	13.935000	120.591377
-2.341423	13.935000	143.015427
-1.341423	13.935000	137.238541
-0.341423	13.935000	131.349426
0.658577	13.935000	124.061501
1.658577	13.935000	135.337799
2.658577	13.935000	141.452988
3.658577	13.935000	146.857376
4.658577	13.935000	1718.420654
5.658577	13.935000	1845.838745
6.658577	13.935000	109.567696
7.658577	13.935000	112.712509
8.658577	13.935000	147.812912
9.658577	13.935000	117.351860
10.658577	13.935000	125.481964
11.658577	13.935000	147.646896
12.658577	13.935000	107.237595
13.658577	13.935000	65.509209
14.658577	13.935000	1860.978760
15.658577	13.935000	2595.124023
16.658577	13.935000	0.639823
17.658577	13.935000	0.639823
18.658577	13.935000	2595.124023
19.658577	13.935000	2595.124023
20.658577	13.935000	2595.124023
21.658577	13.935000	97.083412
22.658577	13.935000	2445.995850
23.658577	13.935000	220.485809
24.658577	13.935000	19.692242
-39.341423	14.935000	0.639823
-38.341423	14.935000	0.639823
-37.341423	14.935000	120.044136
-36.341423	14.935000	144.075378
-35.341423	14.935000	0.639823
-34.341423	14.935000	116.768753
-33.341423	14.935000	135.746002
-32.341423	14.935000	133.533218
-31.341423	14.935000	123.272057
-30.341423	14.935000	121.390617
-29.341423	14.935000	117.802582
-28.341423	14.935000	106.025848
-27.341423	14.935000	111.722092
-26.341423	14.935000	117.266510
-25.341423	14.935000	137.650894
-24.341423	14.935000	86.303352
-23.341423	14.935000	99.405937
-22.341423	14.935000	130.567535
-21.341423	14.935000	122.012421
-20.341423	14.935000	141.558777
-19.341423	14.935000	125.944603
-18.341423	14.935000	114.576958
-17.341423	14.935000	143.345749
-16.341423	14.935000	121.840393
-15.341423	14.935000	122.202866
-14.341423	14.935000	108.620338
-13.341423	14.935000	94.127785
-12.341423	14.935000	104.454384
-11.341423	14.935000	74.349899
-10.341423	14.935000	136.334579
-9.341423	14.935000	52.732960
-8.341423	14.935000	108.411133
-7.341423	14.935000	111.325264
-6.341423	14.935000	0.639823
-5.341423	14.935000	136.167831
-4.341423	14.935000	137.044281
-3.341423	14.935000	128.234711
-2.341423	14.935000	76.016655
-1.341423	14.935000	104.472321
-0.341423	14.935000	153.025986
0.658577	14.935000	173.956665
1.658577	14.935000	118.142204
2.658577	14.935000	160.400909
3.658577	14.935000	127.660316
4.658577	14.935000	300.749542
5.658577	14.935000	89.226364
6.658577	14.935000	202.840439
7.658577	14.935000	99.513527
8.658577	14.935000	135.381943
9.658577	14.935000	122.212341
10.658577	14.935000	121.294914
11.658577	14.935000	139.258499
12.658577	14.935000	78.300858
13.658577	14.935000	162.935425
14.658577	14.935000	2595.124023
15.658577	14.935000	2595.124023
16.658577	14.935000	2595.124023
17.658577	14.935000	2537.471924
18.658577	14.935000	2595.124023
19.658577	14.935000	2595.124023
20.658577	14.935000	2595.124023
21.658577	14.935000	0.639823
22.658577	14.935000	2595.124023
23.658577	14.935000	0.639823
24.658577	14.935000	2595.124023
-39.341423	15.935000	120.532333
-38.341423	15.935000	120.869919
-37.341423	15.935000	148.002060
-36.341423	15.935000	133.761475
-35.341423	15.935000	133.817200
-34.341423	15.935000	132.056076
-33.341423	15.935000	144.983856
-32.341423	15.935000	126.192795
-31.341423	15.935000	138.306412
-30.341423	15.935000	118.699249
-29.341423	15.935000	129.583801
-28.341423	15.935000	112.681129
-27.341423	15.935000	139.527740
-26.341423	15.935000	98.238327
-25.341423	15.935000	110.406242
-24.341423	15.935000	112.870918
-23.341423	15.935000	36.454559
-22.341423	15.935000	72.716614
-21.341423	15.935000	101.841583
-20.341423	15.935000	153.533127
-19.341423	15.935000	111.398560
-18.341423	15.935000	125.446953
-17.341423	15.935000	114.002571
-16.341423	15.935000	111.741859
-15.341423	15.935000	0.639823
-14.341423	15.935000	0.639823
-13.341423	15.935000	108.780502
-12.341423	15.935000	0.639823
-11.341423	15.935000	114.273140
-10.341423	15.935000	112.012566
-9.341423	15.935000	1741.056763
-8.341423	15.935000	1.790054
-7.341423	15.935000	99.963722
-6.341423	15.935000	92.958046
-5.341423	15.935000	108.599403
-4.341423	15.935000	224.868774
-3.341423	15.935000	148.355164
-2.341423	15.935000	133.866394
-1.341423	15.935000	144.537796
-0.341423	15.935000	131.061050
0.658577	15.935000	132.243118
1.658577	15.935000	139.110825
2.658577	15.935000	106.810585
3.658577	15.935000	96.333916
4.658577	15.935000	2058.778564
5.658577	15.935000	2462.265137
6.658577	15.935000	186.287613
7.658577	15.935000	243.967484
8.658577	15.935000	96.864174
9.658577	15.935000	120.691345
10.658577	15.935000	114.814941
11.658577	15.935000	115.365280
12.658577	15.935000	86.997665
13.658577	15.935000	146.285843
14.658577	15.935000	2595.124023
15.658577	15.935000	2595.124023
16.658577	15.935000	2595.124023
17.658577	15.935000	2595.124023
18.658577	15.935000	2595.124023
19.658577	15.935000	0.639823
20.658577	15.935000	1920.799683
21.658577	15.935000	2595.124023
22.658577	15.935000	2595.124023
23.658577	15.935000	213.207474
24.658577	15.935000	1089.630981
