#XList		#YList		#IList		
-39.341423	-21.065000	31.963449
-38.341423	-21.065000	26.018940
-37.341423	-21.065000	17.063686
-36.341423	-21.065000	13.924774
-35.341423	-21.065000	17.377111
-34.341423	-21.065000	57.826672
-33.341423	-21.065000	92.665741
-32.341423	-21.065000	79.508942
-31.341423	-21.065000	109.290405
-30.341423	-21.065000	96.448990
-29.341423	-21.065000	73.057350
-28.341423	-21.065000	43.522671
-27.341423	-21.065000	62.832184
-26.341423	-21.065000	30.054241
-25.341423	-21.065000	18.890741
-24.341423	-21.065000	4.589361
-23.341423	-21.065000	2.576865
-22.341423	-21.065000	3.216783
-21.341423	-21.065000	21.070507
-20.341423	-21.065000	2.497453
-19.341423	-21.065000	1.299882
-18.341423	-21.065000	4.865520
-17.341423	-21.065000	31.441986
-16.341423	-21.065000	129.146591
-15.341423	-21.065000	142.875076
-14.341423	-21.065000	0.000000
-13.341423	-21.065000	72.993042
-12.341423	-21.065000	96.361496
-11.341423	-21.065000	19.737421
-10.341423	-21.065000	1.712679
-9.341423	-21.065000	5.168700
-8.341423	-21.065000	19.692255
-7.341423	-21.065000	37.474392
-6.341423	-21.065000	58.446434
-5.341423	-21.065000	42.198677
-4.341423	-21.065000	8.107022
-3.341423	-21.065000	8.119543
-2.341423	-21.065000	24.607140
-1.341423	-21.065000	27.397625
-0.341423	-21.065000	66.468407
0.658577	-21.065000	42.090904
1.658577	-21.065000	26.689995
2.658577	-21.065000	30.160461
3.658577	-21.065000	33.871635
4.658577	-21.065000	21.541645
5.658577	-21.065000	13.533512
6.658577	-21.065000	4.855868
7.658577	-21.065000	4.225061
8.658577	-21.065000	2.191469
9.658577	-21.065000	11.297870
10.658577	-21.065000	8.717342
11.658577	-21.065000	24.090572
12.658577	-21.065000	30.243336
13.658577	-21.065000	27.796701
14.658577	-21.065000	44.282173
15.658577	-21.065000	47.536728
16.658577	-21.065000	26.609207
17.658577	-21.065000	37.056984
18.658577	-21.065000	60.905548
19.658577	-21.065000	70.740761
20.658577	-21.065000	37.127808
21.658577	-21.065000	6.209423
22.658577	-21.065000	1.897995
23.658577	-21.065000	5.275904
24.658577	-21.065000	4.143165
-39.341423	-20.065000	47.231766
-38.341423	-20.065000	29.938730
-37.341423	-20.065000	18.839954
-36.341423	-20.065000	16.431099
-35.341423	-20.065000	14.055197
-34.341423	-20.065000	26.651882
-33.341423	-20.065000	48.375984
-32.341423	-20.065000	0.000000
-31.341423	-20.065000	105.495384
-30.341423	-20.065000	0.000000
-29.341423	-20.065000	66.700523
-28.341423	-20.065000	45.646770
-27.341423	-20.065000	50.707916
-26.341423	-20.065000	47.890472
-25.341423	-20.065000	62.241283
-24.341423	-20.065000	29.570988
-23.341423	-20.065000	16.171642
-22.341423	-20.065000	8.387304
-21.341423	-20.065000	66.595116
-20.341423	-20.065000	31.646330
-19.341423	-20.065000	21.153568
-18.341423	-20.065000	15.972939
-17.341423	-20.065000	103.650864
-16.341423	-20.065000	131.253342
-15.341423	-20.065000	122.494507
-14.341423	-20.065000	97.937622
-13.341423	-20.065000	90.445770
-12.341423	-20.065000	108.514908
-11.341423	-20.065000	7.611082
-10.341423	-20.065000	21.526587
-9.341423	-20.065000	45.126610
-8.341423	-20.065000	50.248112
-7.341423	-20.065000	29.961449
-6.341423	-20.065000	35.980019
-5.341423	-20.065000	37.338871
-4.341423	-20.065000	17.398848
-3.341423	-20.065000	16.899090
-2.341423	-20.065000	65.449783
-1.341423	-20.065000	43.609299
-0.341423	-20.065000	54.790306
0.658577	-20.065000	35.664368
1.658577	-20.065000	29.973577
2.658577	-20.065000	28.578541
3.658577	-20.065000	16.859432
4.658577	-20.065000	17.397108
5.658577	-20.065000	4.537117
6.658577	-20.065000	2.016560
7.658577	-20.065000	3.321755
8.658577	-20.065000	4.744828
9.658577	-20.065000	17.652588
10.658577	-20.065000	17.258858
11.658577	-20.065000	23.130411
12.658577	-20.065000	39.826748
13.658577	-20.065000	45.199482
14.658577	-20.065000	47.400948
15.658577	-20.065000	56.323940
16.658577	-20.065000	52.002270
17.658577	-20.065000	30.091694
18.658577	-20.065000	59.649006
19.658577	-20.065000	77.576157
20.658577	-20.065000	82.845665
21.658577	-20.065000	30.722612
22.658577	-20.065000	3.185845
23.658577	-20.065000	1.255705
24.658577	-20.065000	1.995831
-39.341423	-19.065000	46.742065
-38.341423	-19.065000	27.951427
-37.341423	-19.065000	21.928486
-36.341423	-19.065000	12.995131
-35.341423	-19.065000	25.456663
-34.341423	-19.065000	2.056803
-33.341423	-19.065000	21.861908
-32.341423	-19.065000	89.871971
-31.341423	-19.065000	141.002777
-30.341423	-19.065000	124.020096
-29.341423	-19.065000	57.121834
-28.341423	-19.065000	46.220078
-27.341423	-19.065000	47.813099
-26.341423	-19.065000	50.335678
-25.341423	-19.065000	52.324814
-24.341423	-19.065000	55.431801
-23.341423	-19.065000	57.311485
-22.341423	-19.065000	55.378571
-21.341423	-19.065000	50.829857
-20.341423	-19.065000	60.020061
-19.341423	-19.065000	69.904747
-18.341423	-19.065000	32.531517
-17.341423	-19.065000	113.901962
-16.341423	-19.065000	134.842651
-15.341423	-19.065000	129.669113
-14.341423	-19.065000	0.000000
-13.341423	-19.065000	93.685143
-12.341423	-19.065000	124.434326
-11.341423	-19.065000	36.947773
-10.341423	-19.065000	65.547386
-9.341423	-19.065000	51.424332
-8.341423	-19.065000	40.900307
-7.341423	-19.065000	51.683247
-6.341423	-19.065000	47.369041
-5.341423	-19.065000	34.375542
-4.341423	-19.065000	54.608990
-3.341423	-19.065000	68.571503
-2.341423	-19.065000	40.589184
-1.341423	-19.065000	43.117931
-0.341423	-19.065000	61.540585
0.658577	-19.065000	18.097210
1.658577	-19.065000	21.091681
2.658577	-19.065000	28.489771
3.658577	-19.065000	36.769497
4.658577	-19.065000	27.461662
5.658577	-19.065000	3.201522
6.658577	-19.065000	2.159375
7.658577	-19.065000	15.651566
8.658577	-19.065000	40.960239
9.658577	-19.065000	49.570175
10.658577	-19.065000	25.092594
11.658577	-19.065000	66.209320
12.658577	-19.065000	42.742867
13.658577	-19.065000	58.920403
14.658577	-19.065000	42.836617
15.658577	-19.065000	17.665808
16.658577	-19.065000	43.156876
17.658577	-19.065000	17.341076
18.658577	-19.065000	55.817581
19.658577	-19.065000	66.976639
20.658577	-19.065000	74.443054
21.658577	-19.065000	30.765509
22.658577	-19.065000	7.572730
23.658577	-19.065000	3.920573
24.658577	-19.065000	2.338482
-39.341423	-18.065000	76.750587
-38.341423	-18.065000	40.677692
-37.341423	-18.065000	48.900597
-36.341423	-18.065000	36.206520
-35.341423	-18.065000	32.128899
-34.341423	-18.065000	1.500232
-33.341423	-18.065000	18.962440
-32.341423	-18.065000	81.477150
-31.341423	-18.065000	112.254425
-30.341423	-18.065000	98.328560
-29.341423	-18.065000	56.976093
-28.341423	-18.065000	66.257004
-27.341423	-18.065000	65.476112
-26.341423	-18.065000	62.832016
-25.341423	-18.065000	55.329849
-24.341423	-18.065000	59.265766
-23.341423	-18.065000	53.799137
-22.341423	-18.065000	61.665546
-21.341423	-18.065000	47.022041
-20.341423	-18.065000	55.236374
-19.341423	-18.065000	53.371578
-18.341423	-18.065000	32.071991
-17.341423	-18.065000	80.134865
-16.341423	-18.065000	88.279709
-15.341423	-18.065000	130.619995
-14.341423	-18.065000	116.817726
-13.341423	-18.065000	133.990829
-12.341423	-18.065000	98.402359
-11.341423	-18.065000	75.559761
-10.341423	-18.065000	71.808907
-9.341423	-18.065000	55.402321
-8.341423	-18.065000	45.503532
-7.341423	-18.065000	56.898430
-6.341423	-18.065000	62.866970
-5.341423	-18.065000	21.790380
-4.341423	-18.065000	36.555244
-3.341423	-18.065000	47.391827
-2.341423	-18.065000	41.485184
-1.341423	-18.065000	37.208961
-0.341423	-18.065000	33.985817
0.658577	-18.065000	20.367884
1.658577	-18.065000	17.308619
2.658577	-18.065000	42.435577
3.658577	-18.065000	22.699089
4.658577	-18.065000	46.645866
5.658577	-18.065000	10.110730
6.658577	-18.065000	31.885098
7.658577	-18.065000	100.999252
8.658577	-18.065000	20.180122
9.658577	-18.065000	76.275101
10.658577	-18.065000	80.618378
11.658577	-18.065000	115.977875
12.658577	-18.065000	88.611900
13.658577	-18.065000	69.863762
14.658577	-18.065000	49.909393
15.658577	-18.065000	49.849670
16.658577	-18.065000	47.364265
17.658577	-18.065000	45.733746
18.658577	-18.065000	56.057518
19.658577	-18.065000	26.313932
20.658577	-18.065000	5.927958
21.658577	-18.065000	22.021551
22.658577	-18.065000	62.678391
23.658577	-18.065000	57.013645
24.658577	-18.065000	36.267422
-39.341423	-17.065000	71.413162
-38.341423	-17.065000	86.086159
-37.341423	-17.065000	114.975731
-36.341423	-17.065000	6.470119
-35.341423	-17.065000	2.541413
-34.341423	-17.065000	3.904681
-33.341423	-17.065000	4.478796
-32.341423	-17.065000	24.407253
-31.341423	-17.065000	49.175732
-30.341423	-17.065000	56.318241
-29.341423	-17.065000	58.929432
-28.341423	-17.065000	56.973328
-27.341423	-17.065000	55.628841
-26.341423	-17.065000	47.418831
-25.341423	-17.065000	56.322983
-24.341423	-17.065000	63.148647
-23.341423	-17.065000	63.423283
-22.341423	-17.065000	49.260315
-21.341423	-17.065000	60.877987
-20.341423	-17.065000	12.635440
-19.341423	-17.065000	19.443792
-18.341423	-17.065000	7.137720
-17.341423	-17.065000	50.714844
-16.341423	-17.065000	93.422241
-15.341423	-17.065000	129.670639
-14.341423	-17.065000	139.778900
-13.341423	-17.065000	115.134956
-12.341423	-17.065000	0.000000
-11.341423	-17.065000	70.441895
-10.341423	-17.065000	73.624298
-9.341423	-17.065000	40.787655
-8.341423	-17.065000	55.283955
-7.341423	-17.065000	12.627924
-6.341423	-17.065000	74.781013
-5.341423	-17.065000	69.843575
-4.341423	-17.065000	29.280066
-3.341423	-17.065000	36.595280
-2.341423	-17.065000	32.632965
-1.341423	-17.065000	58.279869
-0.341423	-17.065000	26.775368
0.658577	-17.065000	29.734648
1.658577	-17.065000	23.764463
2.658577	-17.065000	27.125465
3.658577	-17.065000	21.066166
4.658577	-17.065000	47.074337
5.658577	-17.065000	9.540184
6.658577	-17.065000	45.858963
7.658577	-17.065000	78.644966
8.658577	-17.065000	69.015480
9.658577	-17.065000	74.701126
10.658577	-17.065000	74.630035
11.658577	-17.065000	76.699127
12.658577	-17.065000	97.067154
13.658577	-17.065000	53.420509
14.658577	-17.065000	38.442375
15.658577	-17.065000	82.462105
16.658577	-17.065000	28.019262
17.658577	-17.065000	16.194283
18.658577	-17.065000	15.192562
19.658577	-17.065000	20.794394
20.658577	-17.065000	8.502046
21.658577	-17.065000	27.517616
22.658577	-17.065000	36.593853
23.658577	-17.065000	42.561810
24.658577	-17.065000	58.170078
-39.341423	-16.065000	37.806248
-38.341423	-16.065000	71.267776
-37.341423	-16.065000	23.326885
-36.341423	-16.065000	9.673912
-35.341423	-16.065000	30.131037
-34.341423	-16.065000	33.363014
-33.341423	-16.065000	61.159649
-32.341423	-16.065000	109.604134
-31.341423	-16.065000	82.199867
-30.341423	-16.065000	65.317596
-29.341423	-16.065000	56.684593
-28.341423	-16.065000	56.797989
-27.341423	-16.065000	59.941689
-26.341423	-16.065000	64.488228
-25.341423	-16.065000	52.069393
-24.341423	-16.065000	63.728600
-23.341423	-16.065000	63.853203
-22.341423	-16.065000	49.872147
-21.341423	-16.065000	43.167591
-20.341423	-16.065000	4.642096
-19.341423	-16.065000	8.344422
-18.341423	-16.065000	4.437656
-17.341423	-16.065000	25.335945
-16.341423	-16.065000	0.000000
-15.341423	-16.065000	0.000000
-14.341423	-16.065000	164.755249
-13.341423	-16.065000	0.000000
-12.341423	-16.065000	107.215851
-11.341423	-16.065000	59.406898
-10.341423	-16.065000	41.326691
-9.341423	-16.065000	60.203800
-8.341423	-16.065000	19.977249
-7.341423	-16.065000	17.829815
-6.341423	-16.065000	59.510944
-5.341423	-16.065000	78.344971
-4.341423	-16.065000	53.982418
-3.341423	-16.065000	19.923956
-2.341423	-16.065000	16.219225
-1.341423	-16.065000	39.868828
-0.341423	-16.065000	81.237595
0.658577	-16.065000	59.262085
1.658577	-16.065000	27.865883
2.658577	-16.065000	9.419278
3.658577	-16.065000	13.568921
4.658577	-16.065000	14.094273
5.658577	-16.065000	43.575844
6.658577	-16.065000	60.365837
7.658577	-16.065000	61.366203
8.658577	-16.065000	62.621841
9.658577	-16.065000	61.418564
10.658577	-16.065000	78.578300
11.658577	-16.065000	117.733551
12.658577	-16.065000	87.741142
13.658577	-16.065000	10.360664
14.658577	-16.065000	19.306372
15.658577	-16.065000	61.264126
16.658577	-16.065000	31.232132
17.658577	-16.065000	28.661858
18.658577	-16.065000	16.443798
19.658577	-16.065000	32.763645
20.658577	-16.065000	17.485603
21.658577	-16.065000	39.188770
22.658577	-16.065000	39.780308
23.658577	-16.065000	47.566189
24.658577	-16.065000	34.101585
-39.341423	-15.065000	12.868646
-38.341423	-15.065000	5.455085
-37.341423	-15.065000	20.878368
-36.341423	-15.065000	92.981422
-35.341423	-15.065000	0.000000
-34.341423	-15.065000	162.495850
-33.341423	-15.065000	21.644857
-32.341423	-15.065000	162.160828
-31.341423	-15.065000	88.863228
-30.341423	-15.065000	68.201584
-29.341423	-15.065000	72.394730
-28.341423	-15.065000	58.324978
-27.341423	-15.065000	80.337379
-26.341423	-15.065000	63.907669
-25.341423	-15.065000	67.388069
-24.341423	-15.065000	66.757179
-23.341423	-15.065000	54.904423
-22.341423	-15.065000	39.703888
-21.341423	-15.065000	34.587658
-20.341423	-15.065000	4.630614
-19.341423	-15.065000	3.532345
-18.341423	-15.065000	56.662750
-17.341423	-15.065000	64.303726
-16.341423	-15.065000	101.734329
-15.341423	-15.065000	104.786629
-14.341423	-15.065000	0.000000
-13.341423	-15.065000	112.395317
-12.341423	-15.065000	52.200302
-11.341423	-15.065000	29.812386
-10.341423	-15.065000	42.330799
-9.341423	-15.065000	45.953384
-8.341423	-15.065000	26.807325
-7.341423	-15.065000	33.030239
-6.341423	-15.065000	32.852890
-5.341423	-15.065000	54.007839
-4.341423	-15.065000	28.252054
-3.341423	-15.065000	23.812149
-2.341423	-15.065000	14.041014
-1.341423	-15.065000	23.572823
-0.341423	-15.065000	81.448029
0.658577	-15.065000	61.822296
1.658577	-15.065000	32.596310
2.658577	-15.065000	25.120371
3.658577	-15.065000	18.847416
4.658577	-15.065000	40.976570
5.658577	-15.065000	0.000000
6.658577	-15.065000	102.983147
7.658577	-15.065000	62.218777
8.658577	-15.065000	68.623764
9.658577	-15.065000	73.792831
10.658577	-15.065000	69.462036
11.658577	-15.065000	75.695709
12.658577	-15.065000	8.265657
13.658577	-15.065000	8.453309
14.658577	-15.065000	30.048496
15.658577	-15.065000	1.838093
16.658577	-15.065000	20.922945
17.658577	-15.065000	39.532688
18.658577	-15.065000	41.360611
19.658577	-15.065000	9.323145
20.658577	-15.065000	12.337176
21.658577	-15.065000	40.692112
22.658577	-15.065000	74.542023
23.658577	-15.065000	35.791492
24.658577	-15.065000	21.933990
-39.341423	-14.065000	8.264488
-38.341423	-14.065000	29.152363
-37.341423	-14.065000	0.000000
-36.341423	-14.065000	140.482559
-35.341423	-14.065000	137.647827
-34.341423	-14.065000	125.890450
-33.341423	-14.065000	0.000000
-32.341423	-14.065000	0.000000
-31.341423	-14.065000	108.968063
-30.341423	-14.065000	76.044846
-29.341423	-14.065000	69.125748
-28.341423	-14.065000	73.689133
-27.341423	-14.065000	77.425789
-26.341423	-14.065000	80.138268
-25.341423	-14.065000	48.929768
-24.341423	-14.065000	52.857792
-23.341423	-14.065000	56.904690
-22.341423	-14.065000	48.959751
-21.341423	-14.065000	15.831415
-20.341423	-14.065000	26.124460
-19.341423	-14.065000	4.260011
-18.341423	-14.065000	28.728842
-17.341423	-14.065000	23.201632
-16.341423	-14.065000	49.159878
-15.341423	-14.065000	103.057137
-14.341423	-14.065000	99.059753
-13.341423	-14.065000	38.741650
-12.341423	-14.065000	36.430939
-11.341423	-14.065000	27.541121
-10.341423	-14.065000	36.284767
-9.341423	-14.065000	27.485743
-8.341423	-14.065000	20.160028
-7.341423	-14.065000	20.995867
-6.341423	-14.065000	33.880119
-5.341423	-14.065000	37.023441
-4.341423	-14.065000	15.676937
-3.341423	-14.065000	17.692242
-2.341423	-14.065000	14.417213
-1.341423	-14.065000	21.347240
-0.341423	-14.065000	49.714767
0.658577	-14.065000	57.494816
1.658577	-14.065000	39.507614
2.658577	-14.065000	17.341049
3.658577	-14.065000	15.299529
4.658577	-14.065000	21.431854
5.658577	-14.065000	49.947628
6.658577	-14.065000	106.729149
7.658577	-14.065000	107.426888
8.658577	-14.065000	59.627430
9.658577	-14.065000	100.662102
10.658577	-14.065000	49.049507
11.658577	-14.065000	4.298612
12.658577	-14.065000	3.480910
13.658577	-14.065000	36.898914
14.658577	-14.065000	12.729154
15.658577	-14.065000	3.004695
16.658577	-14.065000	3.615335
17.658577	-14.065000	6.101346
18.658577	-14.065000	11.843953
19.658577	-14.065000	20.210810
20.658577	-14.065000	33.528614
21.658577	-14.065000	46.225231
22.658577	-14.065000	51.827450
23.658577	-14.065000	30.104801
24.658577	-14.065000	14.310915
-39.341423	-13.065000	88.003036
-38.341423	-13.065000	121.232086
-37.341423	-13.065000	146.154617
-36.341423	-13.065000	0.000000
-35.341423	-13.065000	0.000000
-34.341423	-13.065000	39.273403
-33.341423	-13.065000	0.000000
-32.341423	-13.065000	146.471329
-31.341423	-13.065000	120.675079
-30.341423	-13.065000	102.363724
-29.341423	-13.065000	98.279030
-28.341423	-13.065000	65.803085
-27.341423	-13.065000	73.948792
-26.341423	-13.065000	61.983643
-25.341423	-13.065000	52.557995
-24.341423	-13.065000	47.056206
-23.341423	-13.065000	55.754372
-22.341423	-13.065000	57.816383
-21.341423	-13.065000	36.812996
-20.341423	-13.065000	38.885040
-19.341423	-13.065000	25.125727
-18.341423	-13.065000	11.640818
-17.341423	-13.065000	4.557529
-16.341423	-13.065000	12.234703
-15.341423	-13.065000	25.014471
-14.341423	-13.065000	5.329478
-13.341423	-13.065000	6.875986
-12.341423	-13.065000	11.439239
-11.341423	-13.065000	30.787670
-10.341423	-13.065000	36.158298
-9.341423	-13.065000	24.657799
-8.341423	-13.065000	23.636627
-7.341423	-13.065000	25.059319
-6.341423	-13.065000	39.798801
-5.341423	-13.065000	33.811615
-4.341423	-13.065000	21.303980
-3.341423	-13.065000	31.360441
-2.341423	-13.065000	34.652737
-1.341423	-13.065000	33.627491
-0.341423	-13.065000	74.999229
0.658577	-13.065000	49.830021
1.658577	-13.065000	40.464130
2.658577	-13.065000	23.122257
3.658577	-13.065000	16.995527
4.658577	-13.065000	25.641045
5.658577	-13.065000	26.746841
6.658577	-13.065000	43.412113
7.658577	-13.065000	103.343071
8.658577	-13.065000	95.885201
9.658577	-13.065000	62.133984
10.658577	-13.065000	5.955789
11.658577	-13.065000	3.421801
12.658577	-13.065000	7.082805
13.658577	-13.065000	18.381632
14.658577	-13.065000	36.585876
15.658577	-13.065000	6.874874
16.658577	-13.065000	20.270960
17.658577	-13.065000	46.365578
18.658577	-13.065000	38.846939
19.658577	-13.065000	49.978470
20.658577	-13.065000	69.635498
21.658577	-13.065000	50.181492
22.658577	-13.065000	72.646187
23.658577	-13.065000	55.844105
24.658577	-13.065000	27.577057
-39.341423	-12.065000	125.632469
-38.341423	-12.065000	74.842262
-37.341423	-12.065000	152.256668
-36.341423	-12.065000	89.207947
-35.341423	-12.065000	0.000000
-34.341423	-12.065000	125.365730
-33.341423	-12.065000	131.869324
-32.341423	-12.065000	124.764626
-31.341423	-12.065000	108.571678
-30.341423	-12.065000	117.235199
-29.341423	-12.065000	119.324135
-28.341423	-12.065000	87.311295
-27.341423	-12.065000	49.381218
-26.341423	-12.065000	71.564003
-25.341423	-12.065000	50.697994
-24.341423	-12.065000	48.396458
-23.341423	-12.065000	66.706818
-22.341423	-12.065000	57.510159
-21.341423	-12.065000	18.223520
-20.341423	-12.065000	19.857796
-19.341423	-12.065000	22.650446
-18.341423	-12.065000	10.137269
-17.341423	-12.065000	6.521127
-16.341423	-12.065000	9.025318
-15.341423	-12.065000	16.740128
-14.341423	-12.065000	6.198762
-13.341423	-12.065000	13.870286
-12.341423	-12.065000	31.788157
-11.341423	-12.065000	33.685390
-10.341423	-12.065000	37.022453
-9.341423	-12.065000	20.826622
-8.341423	-12.065000	25.379461
-7.341423	-12.065000	42.744682
-6.341423	-12.065000	56.072624
-5.341423	-12.065000	54.287445
-4.341423	-12.065000	17.576914
-3.341423	-12.065000	38.816956
-2.341423	-12.065000	49.640678
-1.341423	-12.065000	46.654221
-0.341423	-12.065000	54.016026
0.658577	-12.065000	28.064606
1.658577	-12.065000	21.536572
2.658577	-12.065000	22.055374
3.658577	-12.065000	14.423207
4.658577	-12.065000	22.422115
5.658577	-12.065000	26.291758
6.658577	-12.065000	30.289215
7.658577	-12.065000	42.027382
8.658577	-12.065000	42.016083
9.658577	-12.065000	1.684720
10.658577	-12.065000	1.376256
11.658577	-12.065000	2.827046
12.658577	-12.065000	30.101942
13.658577	-12.065000	23.883089
14.658577	-12.065000	31.884672
15.658577	-12.065000	52.751785
16.658577	-12.065000	29.231459
17.658577	-12.065000	55.091911
18.658577	-12.065000	47.021442
19.658577	-12.065000	38.802292
20.658577	-12.065000	25.290365
21.658577	-12.065000	35.040863
22.658577	-12.065000	39.434120
23.658577	-12.065000	53.531147
24.658577	-12.065000	34.435135
-39.341423	-11.065000	12.579884
-38.341423	-11.065000	0.000000
-37.341423	-11.065000	153.661865
-36.341423	-11.065000	122.046242
-35.341423	-11.065000	113.188271
-34.341423	-11.065000	113.626732
-33.341423	-11.065000	118.984497
-32.341423	-11.065000	104.563301
-31.341423	-11.065000	109.780975
-30.341423	-11.065000	40.073818
-29.341423	-11.065000	127.895386
-28.341423	-11.065000	0.000000
-27.341423	-11.065000	96.481255
-26.341423	-11.065000	136.390884
-25.341423	-11.065000	67.066765
-24.341423	-11.065000	51.738335
-23.341423	-11.065000	45.847366
-22.341423	-11.065000	42.143456
-21.341423	-11.065000	25.962629
-20.341423	-11.065000	48.252796
-19.341423	-11.065000	42.823425
-18.341423	-11.065000	22.730553
-17.341423	-11.065000	16.564709
-16.341423	-11.065000	18.572638
-15.341423	-11.065000	47.736107
-14.341423	-11.065000	26.154156
-13.341423	-11.065000	9.490808
-12.341423	-11.065000	49.950100
-11.341423	-11.065000	42.907700
-10.341423	-11.065000	32.698498
-9.341423	-11.065000	16.375069
-8.341423	-11.065000	11.544857
-7.341423	-11.065000	38.163837
-6.341423	-11.065000	46.589603
-5.341423	-11.065000	20.696810
-4.341423	-11.065000	15.721552
-3.341423	-11.065000	17.255301
-2.341423	-11.065000	28.307665
-1.341423	-11.065000	35.216808
-0.341423	-11.065000	26.886292
0.658577	-11.065000	30.105509
1.658577	-11.065000	45.470730
2.658577	-11.065000	46.371990
3.658577	-11.065000	12.783334
4.658577	-11.065000	11.037011
5.658577	-11.065000	24.213188
6.658577	-11.065000	17.424568
7.658577	-11.065000	61.267368
8.658577	-11.065000	50.540462
9.658577	-11.065000	2.383150
10.658577	-11.065000	3.502633
11.658577	-11.065000	1.261114
12.658577	-11.065000	3.102764
13.658577	-11.065000	49.580952
14.658577	-11.065000	39.790417
15.658577	-11.065000	50.130707
16.658577	-11.065000	29.705881
17.658577	-11.065000	30.205683
18.658577	-11.065000	22.680416
19.658577	-11.065000	18.590115
20.658577	-11.065000	15.366520
21.658577	-11.065000	14.541441
22.658577	-11.065000	18.704536
23.658577	-11.065000	51.298038
24.658577	-11.065000	44.626022
-39.341423	-10.065000	0.000000
-38.341423	-10.065000	140.292358
-37.341423	-10.065000	0.000000
-36.341423	-10.065000	116.893867
-35.341423	-10.065000	0.000000
-34.341423	-10.065000	111.955627
-33.341423	-10.065000	126.277115
-32.341423	-10.065000	0.000000
-31.341423	-10.065000	131.431396
-30.341423	-10.065000	0.000000
-29.341423	-10.065000	0.000000
-28.341423	-10.065000	0.000000
-27.341423	-10.065000	38.074108
-26.341423	-10.065000	129.414703
-25.341423	-10.065000	70.877525
-24.341423	-10.065000	52.434467
-23.341423	-10.065000	33.124191
-22.341423	-10.065000	5.762735
-21.341423	-10.065000	44.063725
-20.341423	-10.065000	36.016693
-19.341423	-10.065000	17.967073
-18.341423	-10.065000	27.219040
-17.341423	-10.065000	32.829571
-16.341423	-10.065000	39.011021
-15.341423	-10.065000	73.082207
-14.341423	-10.065000	66.751328
-13.341423	-10.065000	25.406425
-12.341423	-10.065000	86.935059
-11.341423	-10.065000	69.406250
-10.341423	-10.065000	38.348938
-9.341423	-10.065000	2.292139
-8.341423	-10.065000	11.518327
-7.341423	-10.065000	8.514418
-6.341423	-10.065000	7.964913
-5.341423	-10.065000	8.194619
-4.341423	-10.065000	9.124178
-3.341423	-10.065000	9.711458
-2.341423	-10.065000	18.211407
-1.341423	-10.065000	31.968046
-0.341423	-10.065000	49.617168
0.658577	-10.065000	61.602337
1.658577	-10.065000	54.771305
2.658577	-10.065000	19.677757
3.658577	-10.065000	6.899864
4.658577	-10.065000	7.305537
5.658577	-10.065000	33.821239
6.658577	-10.065000	44.795048
7.658577	-10.065000	51.234447
8.658577	-10.065000	3.074287
9.658577	-10.065000	2.712433
10.658577	-10.065000	1.790840
11.658577	-10.065000	0.065037
12.658577	-10.065000	3.985765
13.658577	-10.065000	34.962780
14.658577	-10.065000	24.780703
15.658577	-10.065000	46.876907
16.658577	-10.065000	44.296024
17.658577	-10.065000	19.549107
18.658577	-10.065000	13.756378
19.658577	-10.065000	19.730040
20.658577	-10.065000	25.804270
21.658577	-10.065000	13.759672
22.658577	-10.065000	8.777749
23.658577	-10.065000	23.665817
24.658577	-10.065000	15.383183
-39.341423	-9.065000	0.000000
-38.341423	-9.065000	119.619339
-37.341423	-9.065000	127.346710
-36.341423	-9.065000	137.608398
-35.341423	-9.065000	141.792206
-34.341423	-9.065000	0.000000
-33.341423	-9.065000	0.000000
-32.341423	-9.065000	140.120636
-31.341423	-9.065000	134.642593
-30.341423	-9.065000	122.165237
-29.341423	-9.065000	134.186325
-28.341423	-9.065000	131.265640
-27.341423	-9.065000	141.584473
-26.341423	-9.065000	89.463242
-25.341423	-9.065000	53.971992
-24.341423	-9.065000	2.833417
-23.341423	-9.065000	6.355112
-22.341423	-9.065000	2.457680
-21.341423	-9.065000	0.525829
-20.341423	-9.065000	4.698486
-19.341423	-9.065000	34.892765
-18.341423	-9.065000	21.991606
-17.341423	-9.065000	26.163597
-16.341423	-9.065000	61.342083
-15.341423	-9.065000	93.432144
-14.341423	-9.065000	87.492882
-13.341423	-9.065000	54.812485
-12.341423	-9.065000	126.736938
-11.341423	-9.065000	166.143188
-10.341423	-9.065000	0.000000
-9.341423	-9.065000	44.214066
-8.341423	-9.065000	61.027866
-7.341423	-9.065000	9.470522
-6.341423	-9.065000	6.920094
-5.341423	-9.065000	4.467254
-4.341423	-9.065000	10.180554
-3.341423	-9.065000	13.296882
-2.341423	-9.065000	4.227271
-1.341423	-9.065000	28.617130
-0.341423	-9.065000	48.418610
0.658577	-9.065000	42.899570
1.658577	-9.065000	10.202365
2.658577	-9.065000	18.721197
3.658577	-9.065000	5.462428
4.658577	-9.065000	27.497618
5.658577	-9.065000	0.000000
6.658577	-9.065000	59.148628
7.658577	-9.065000	43.611267
8.658577	-9.065000	1.888734
9.658577	-9.065000	0.737847
10.658577	-9.065000	2.293027
11.658577	-9.065000	1.180840
12.658577	-9.065000	30.471910
13.658577	-9.065000	24.195137
14.658577	-9.065000	20.219025
15.658577	-9.065000	11.677857
16.658577	-9.065000	34.922489
17.658577	-9.065000	46.864418
18.658577	-9.065000	19.313459
19.658577	-9.065000	16.945253
20.658577	-9.065000	23.414543
21.658577	-9.065000	14.145044
22.658577	-9.065000	23.981071
23.658577	-9.065000	20.820492
24.658577	-9.065000	10.233421
-39.341423	-8.065000	122.968750
-38.341423	-8.065000	121.276047
-37.341423	-8.065000	122.157249
-36.341423	-8.065000	0.000000
-35.341423	-8.065000	0.000000
-34.341423	-8.065000	139.872009
-33.341423	-8.065000	0.000000
-32.341423	-8.065000	39.588711
-31.341423	-8.065000	122.048584
-30.341423	-8.065000	121.654732
-29.341423	-8.065000	110.469994
-28.341423	-8.065000	126.355438
-27.341423	-8.065000	0.000000
-26.341423	-8.065000	80.469948
-25.341423	-8.065000	107.214081
-24.341423	-8.065000	32.442326
-23.341423	-8.065000	4.618108
-22.341423	-8.065000	1.226247
-21.341423	-8.065000	8.279480
-20.341423	-8.065000	15.944029
-19.341423	-8.065000	28.066753
-18.341423	-8.065000	45.663929
-17.341423	-8.065000	100.948174
-16.341423	-8.065000	96.059494
-15.341423	-8.065000	55.966835
-14.341423	-8.065000	64.908272
-13.341423	-8.065000	67.540947
-12.341423	-8.065000	76.925949
-11.341423	-8.065000	98.231529
-10.341423	-8.065000	55.143661
-9.341423	-8.065000	114.621414
-8.341423	-8.065000	90.061951
-7.341423	-8.065000	7.945567
-6.341423	-8.065000	6.742147
-5.341423	-8.065000	13.889557
-4.341423	-8.065000	4.354052
-3.341423	-8.065000	14.084578
-2.341423	-8.065000	4.266478
-1.341423	-8.065000	10.087404
-0.341423	-8.065000	14.970527
0.658577	-8.065000	21.646761
1.658577	-8.065000	7.570096
2.658577	-8.065000	7.929352
3.658577	-8.065000	20.318071
4.658577	-8.065000	53.583645
5.658577	-8.065000	72.677444
6.658577	-8.065000	54.690189
7.658577	-8.065000	42.990459
8.658577	-8.065000	3.585814
9.658577	-8.065000	3.407902
10.658577	-8.065000	2.646210
11.658577	-8.065000	2.679939
12.658577	-8.065000	7.074084
13.658577	-8.065000	35.254074
14.658577	-8.065000	30.348680
15.658577	-8.065000	34.278732
16.658577	-8.065000	57.525681
17.658577	-8.065000	48.476521
18.658577	-8.065000	17.782495
19.658577	-8.065000	22.529026
20.658577	-8.065000	26.837429
21.658577	-8.065000	12.442759
22.658577	-8.065000	9.974358
23.658577	-8.065000	29.926163
24.658577	-8.065000	5.221777
-39.341423	-7.065000	127.505768
-38.341423	-7.065000	83.151314
-37.341423	-7.065000	129.779892
-36.341423	-7.065000	133.413788
-35.341423	-7.065000	150.968307
-34.341423	-7.065000	161.539261
-33.341423	-7.065000	153.751083
-32.341423	-7.065000	141.141769
-31.341423	-7.065000	134.858383
-30.341423	-7.065000	123.189636
-29.341423	-7.065000	138.268036
-28.341423	-7.065000	117.672729
-27.341423	-7.065000	27.306358
-26.341423	-7.065000	83.080566
-25.341423	-7.065000	94.303246
-24.341423	-7.065000	44.780277
-23.341423	-7.065000	22.344229
-22.341423	-7.065000	5.959353
-21.341423	-7.065000	16.884960
-20.341423	-7.065000	25.884991
-19.341423	-7.065000	48.793697
-18.341423	-7.065000	22.438148
-17.341423	-7.065000	108.968468
-16.341423	-7.065000	105.370186
-15.341423	-7.065000	64.368622
-14.341423	-7.065000	74.938591
-13.341423	-7.065000	58.978626
-12.341423	-7.065000	63.624084
-11.341423	-7.065000	81.558395
-10.341423	-7.065000	86.772621
-9.341423	-7.065000	117.842384
-8.341423	-7.065000	103.080299
-7.341423	-7.065000	6.583171
-6.341423	-7.065000	5.393721
-5.341423	-7.065000	2.990278
-4.341423	-7.065000	3.448789
-3.341423	-7.065000	31.055916
-2.341423	-7.065000	33.763336
-1.341423	-7.065000	4.807704
-0.341423	-7.065000	2.119225
0.658577	-7.065000	1.229428
1.658577	-7.065000	3.880867
2.658577	-7.065000	28.789381
3.658577	-7.065000	38.308193
4.658577	-7.065000	48.815067
5.658577	-7.065000	68.857819
6.658577	-7.065000	19.259239
7.658577	-7.065000	8.697433
8.658577	-7.065000	0.000000
9.658577	-7.065000	2.757155
10.658577	-7.065000	23.072590
11.658577	-7.065000	4.657453
12.658577	-7.065000	13.183434
13.658577	-7.065000	53.378616
14.658577	-7.065000	87.204887
15.658577	-7.065000	91.920364
16.658577	-7.065000	36.991344
17.658577	-7.065000	26.618896
18.658577	-7.065000	22.421959
19.658577	-7.065000	26.207745
20.658577	-7.065000	42.960251
21.658577	-7.065000	34.042404
22.658577	-7.065000	32.718613
23.658577	-7.065000	43.867680
24.658577	-7.065000	19.296066
-39.341423	-6.065000	105.048660
-38.341423	-6.065000	123.249016
-37.341423	-6.065000	0.000000
-36.341423	-6.065000	128.584076
-35.341423	-6.065000	125.813126
-34.341423	-6.065000	143.887131
-33.341423	-6.065000	157.700531
-32.341423	-6.065000	145.876266
-31.341423	-6.065000	113.270493
-30.341423	-6.065000	134.806244
-29.341423	-6.065000	130.688751
-28.341423	-6.065000	104.487564
-27.341423	-6.065000	39.156960
-26.341423	-6.065000	79.926819
-25.341423	-6.065000	0.000000
-24.341423	-6.065000	0.000000
-23.341423	-6.065000	53.150139
-22.341423	-6.065000	74.129509
-21.341423	-6.065000	67.868866
-20.341423	-6.065000	20.236713
-19.341423	-6.065000	2.508161
-18.341423	-6.065000	1.614364
-17.341423	-6.065000	20.285000
-16.341423	-6.065000	103.416008
-15.341423	-6.065000	127.931671
-14.341423	-6.065000	91.714066
-13.341423	-6.065000	77.920998
-12.341423	-6.065000	71.821213
-11.341423	-6.065000	15.288717
-10.341423	-6.065000	108.284195
-9.341423	-6.065000	127.625084
-8.341423	-6.065000	143.869873
-7.341423	-6.065000	82.910225
-6.341423	-6.065000	53.596767
-5.341423	-6.065000	4.784959
-4.341423	-6.065000	1.758934
-3.341423	-6.065000	0.946791
-2.341423	-6.065000	11.524941
-1.341423	-6.065000	3.178355
-0.341423	-6.065000	2.427180
0.658577	-6.065000	1.441721
1.658577	-6.065000	0.035264
2.658577	-6.065000	22.775410
3.658577	-6.065000	57.088181
4.658577	-6.065000	41.376598
5.658577	-6.065000	43.635620
6.658577	-6.065000	42.596809
7.658577	-6.065000	34.130325
8.658577	-6.065000	2.282111
9.658577	-6.065000	12.286777
10.658577	-6.065000	28.459488
11.658577	-6.065000	50.962219
12.658577	-6.065000	58.831562
13.658577	-6.065000	59.531818
14.658577	-6.065000	64.807106
15.658577	-6.065000	68.562920
16.658577	-6.065000	63.088028
17.658577	-6.065000	22.413349
18.658577	-6.065000	21.643089
19.658577	-6.065000	26.858381
20.658577	-6.065000	19.600340
21.658577	-6.065000	36.642307
22.658577	-6.065000	34.081104
23.658577	-6.065000	37.450180
24.658577	-6.065000	30.565651
-39.341423	-5.065000	10.869864
-38.341423	-5.065000	47.605228
-37.341423	-5.065000	0.000000
-36.341423	-5.065000	102.493187
-35.341423	-5.065000	102.154922
-34.341423	-5.065000	107.766823
-33.341423	-5.065000	0.000000
-32.341423	-5.065000	154.589066
-31.341423	-5.065000	0.000000
-30.341423	-5.065000	0.000000
-29.341423	-5.065000	98.762878
-28.341423	-5.065000	75.118095
-27.341423	-5.065000	67.726700
-26.341423	-5.065000	67.625771
-25.341423	-5.065000	72.106125
-24.341423	-5.065000	103.744926
-23.341423	-5.065000	69.885406
-22.341423	-5.065000	54.975319
-21.341423	-5.065000	54.034378
-20.341423	-5.065000	1.796518
-19.341423	-5.065000	2.898654
-18.341423	-5.065000	1.444988
-17.341423	-5.065000	4.613028
-16.341423	-5.065000	60.031925
-15.341423	-5.065000	98.545959
-14.341423	-5.065000	117.035278
-13.341423	-5.065000	135.338837
-12.341423	-5.065000	104.088585
-11.341423	-5.065000	0.000000
-10.341423	-5.065000	126.331703
-9.341423	-5.065000	153.277283
-8.341423	-5.065000	113.056900
-7.341423	-5.065000	120.617462
-6.341423	-5.065000	105.499565
-5.341423	-5.065000	50.594402
-4.341423	-5.065000	2.004426
-3.341423	-5.065000	2.234348
-2.341423	-5.065000	40.034573
-1.341423	-5.065000	6.677974
-0.341423	-5.065000	17.434870
0.658577	-5.065000	20.031845
1.658577	-5.065000	4.738904
2.658577	-5.065000	1.951098
3.658577	-5.065000	4.589124
4.658577	-5.065000	35.907276
5.658577	-5.065000	42.161381
6.658577	-5.065000	33.947216
7.658577	-5.065000	33.644939
8.658577	-5.065000	4.144729
9.658577	-5.065000	19.761709
10.658577	-5.065000	64.763016
11.658577	-5.065000	67.971672
12.658577	-5.065000	95.264175
13.658577	-5.065000	90.557358
14.658577	-5.065000	83.269951
15.658577	-5.065000	76.490440
16.658577	-5.065000	59.995502
17.658577	-5.065000	40.226460
18.658577	-5.065000	34.314468
19.658577	-5.065000	25.722916
20.658577	-5.065000	30.873096
21.658577	-5.065000	13.614274
22.658577	-5.065000	13.884088
23.658577	-5.065000	22.879894
24.658577	-5.065000	22.892164
-39.341423	-4.065000	3.442482
-38.341423	-4.065000	12.714671
-37.341423	-4.065000	51.513340
-36.341423	-4.065000	43.858334
-35.341423	-4.065000	76.345482
-34.341423	-4.065000	0.000000
-33.341423	-4.065000	0.000000
-32.341423	-4.065000	36.985771
-31.341423	-4.065000	35.663525
-30.341423	-4.065000	47.645199
-29.341423	-4.065000	18.316639
-28.341423	-4.065000	40.062870
-27.341423	-4.065000	79.583519
-26.341423	-4.065000	83.949730
-25.341423	-4.065000	93.599182
-24.341423	-4.065000	78.590881
-23.341423	-4.065000	44.670593
-22.341423	-4.065000	56.382153
-21.341423	-4.065000	72.496651
-20.341423	-4.065000	38.575005
-19.341423	-4.065000	31.089525
-18.341423	-4.065000	13.920065
-17.341423	-4.065000	8.489452
-16.341423	-4.065000	26.288923
-15.341423	-4.065000	111.908913
-14.341423	-4.065000	127.479210
-13.341423	-4.065000	0.000000
-12.341423	-4.065000	87.289627
-11.341423	-4.065000	63.571445
-10.341423	-4.065000	77.757362
-9.341423	-4.065000	82.922623
-8.341423	-4.065000	163.951920
-7.341423	-4.065000	99.398529
-6.341423	-4.065000	59.870934
-5.341423	-4.065000	54.929844
-4.341423	-4.065000	3.297627
-3.341423	-4.065000	2.004468
-2.341423	-4.065000	0.723617
-1.341423	-4.065000	10.911357
-0.341423	-4.065000	41.151821
0.658577	-4.065000	35.833431
1.658577	-4.065000	12.450592
2.658577	-4.065000	2.455097
3.658577	-4.065000	5.407218
4.658577	-4.065000	10.589268
5.658577	-4.065000	31.231709
6.658577	-4.065000	51.733055
7.658577	-4.065000	52.992531
8.658577	-4.065000	40.703026
9.658577	-4.065000	64.621201
10.658577	-4.065000	59.607433
11.658577	-4.065000	33.489960
12.658577	-4.065000	73.948112
13.658577	-4.065000	108.357971
14.658577	-4.065000	79.602310
15.658577	-4.065000	19.993210
16.658577	-4.065000	36.563328
17.658577	-4.065000	51.639030
18.658577	-4.065000	49.119648
19.658577	-4.065000	40.515408
20.658577	-4.065000	30.207293
21.658577	-4.065000	40.894550
22.658577	-4.065000	32.862556
23.658577	-4.065000	39.384785
24.658577	-4.065000	21.362322
-39.341423	-3.065000	13.003280
-38.341423	-3.065000	2.563450
-37.341423	-3.065000	24.056515
-36.341423	-3.065000	38.389175
-35.341423	-3.065000	58.000572
-34.341423	-3.065000	97.309219
-33.341423	-3.065000	49.310757
-32.341423	-3.065000	7.276440
-31.341423	-3.065000	20.675404
-30.341423	-3.065000	20.995409
-29.341423	-3.065000	3.949611
-28.341423	-3.065000	4.107961
-27.341423	-3.065000	18.550585
-26.341423	-3.065000	80.977951
-25.341423	-3.065000	67.624313
-24.341423	-3.065000	92.368446
-23.341423	-3.065000	89.375313
-22.341423	-3.065000	54.966270
-21.341423	-3.065000	67.019844
-20.341423	-3.065000	28.868704
-19.341423	-3.065000	42.055519
-18.341423	-3.065000	35.500034
-17.341423	-3.065000	45.601498
-16.341423	-3.065000	5.148157
-15.341423	-3.065000	73.450439
-14.341423	-3.065000	139.717834
-13.341423	-3.065000	103.891960
-12.341423	-3.065000	64.651649
-11.341423	-3.065000	36.383411
-10.341423	-3.065000	78.419495
-9.341423	-3.065000	55.147381
-8.341423	-3.065000	62.082180
-7.341423	-3.065000	30.102104
-6.341423	-3.065000	44.560875
-5.341423	-3.065000	58.870941
-4.341423	-3.065000	26.282625
-3.341423	-3.065000	12.774916
-2.341423	-3.065000	49.578018
-1.341423	-3.065000	0.000000
-0.341423	-3.065000	0.000000
0.658577	-3.065000	80.223167
1.658577	-3.065000	21.408165
2.658577	-3.065000	3.120623
3.658577	-3.065000	37.802628
4.658577	-3.065000	6.014856
5.658577	-3.065000	22.774359
6.658577	-3.065000	63.117302
7.658577	-3.065000	59.119133
8.658577	-3.065000	60.846497
9.658577	-3.065000	72.902817
10.658577	-3.065000	33.470787
11.658577	-3.065000	45.527435
12.658577	-3.065000	0.000000
13.658577	-3.065000	0.000000
14.658577	-3.065000	91.673195
15.658577	-3.065000	37.747807
16.658577	-3.065000	59.843922
17.658577	-3.065000	55.024139
18.658577	-3.065000	63.855991
19.658577	-3.065000	21.894810
20.658577	-3.065000	30.712553
21.658577	-3.065000	24.645773
22.658577	-3.065000	0.000000
23.658577	-3.065000	15.156091
24.658577	-3.065000	32.341679
-39.341423	-2.065000	1.725484
-38.341423	-2.065000	23.181911
-37.341423	-2.065000	38.994247
-36.341423	-2.065000	2.247936
-35.341423	-2.065000	13.655828
-34.341423	-2.065000	15.568339
-33.341423	-2.065000	10.659219
-32.341423	-2.065000	8.623542
-31.341423	-2.065000	28.989788
-30.341423	-2.065000	63.449299
-29.341423	-2.065000	3.284930
-28.341423	-2.065000	4.505982
-27.341423	-2.065000	9.289685
-26.341423	-2.065000	75.105461
-25.341423	-2.065000	0.000000
-24.341423	-2.065000	112.651329
-23.341423	-2.065000	0.000000
-22.341423	-2.065000	58.889919
-21.341423	-2.065000	28.896679
-20.341423	-2.065000	16.149216
-19.341423	-2.065000	35.996082
-18.341423	-2.065000	5.736980
-17.341423	-2.065000	10.332911
-16.341423	-2.065000	32.174648
-15.341423	-2.065000	122.964020
-14.341423	-2.065000	130.639526
-13.341423	-2.065000	82.729019
-12.341423	-2.065000	56.892574
-11.341423	-2.065000	59.784016
-10.341423	-2.065000	97.417694
-9.341423	-2.065000	56.715553
-8.341423	-2.065000	44.310276
-7.341423	-2.065000	32.489494
-6.341423	-2.065000	45.202606
-5.341423	-2.065000	70.623901
-4.341423	-2.065000	37.983616
-3.341423	-2.065000	32.309345
-2.341423	-2.065000	99.268150
-1.341423	-2.065000	107.743782
-0.341423	-2.065000	0.000000
0.658577	-2.065000	117.983604
1.658577	-2.065000	54.925125
2.658577	-2.065000	11.914176
3.658577	-2.065000	22.424006
4.658577	-2.065000	7.729313
5.658577	-2.065000	44.917061
6.658577	-2.065000	85.313400
7.658577	-2.065000	62.096191
8.658577	-2.065000	43.304379
9.658577	-2.065000	31.340130
10.658577	-2.065000	34.504704
11.658577	-2.065000	34.445011
12.658577	-2.065000	74.435844
13.658577	-2.065000	0.000000
14.658577	-2.065000	38.412956
15.658577	-2.065000	88.263947
16.658577	-2.065000	61.130386
17.658577	-2.065000	48.281353
18.658577	-2.065000	38.574963
19.658577	-2.065000	42.012718
20.658577	-2.065000	33.768192
21.658577	-2.065000	4.206266
22.658577	-2.065000	3.774297
23.658577	-2.065000	11.992688
24.658577	-2.065000	15.651074
-39.341423	-1.065000	2.052992
-38.341423	-1.065000	3.167420
-37.341423	-1.065000	19.305851
-36.341423	-1.065000	7.385828
-35.341423	-1.065000	14.509692
-34.341423	-1.065000	6.795106
-33.341423	-1.065000	58.233173
-32.341423	-1.065000	39.295124
-31.341423	-1.065000	32.523983
-30.341423	-1.065000	15.501753
-29.341423	-1.065000	3.310087
-28.341423	-1.065000	2.561032
-27.341423	-1.065000	2.991569
-26.341423	-1.065000	38.109776
-25.341423	-1.065000	87.776695
-24.341423	-1.065000	112.012543
-23.341423	-1.065000	46.391457
-22.341423	-1.065000	63.422199
-21.341423	-1.065000	24.838100
-20.341423	-1.065000	7.033744
-19.341423	-1.065000	9.279735
-18.341423	-1.065000	7.197389
-17.341423	-1.065000	36.984344
-16.341423	-1.065000	29.893002
-15.341423	-1.065000	65.020485
-14.341423	-1.065000	138.915268
-13.341423	-1.065000	89.927620
-12.341423	-1.065000	83.995522
-11.341423	-1.065000	84.307495
-10.341423	-1.065000	73.075356
-9.341423	-1.065000	49.145561
-8.341423	-1.065000	57.079384
-7.341423	-1.065000	40.961601
-6.341423	-1.065000	50.942173
-5.341423	-1.065000	107.804863
-4.341423	-1.065000	48.598103
-3.341423	-1.065000	24.607777
-2.341423	-1.065000	0.000000
-1.341423	-1.065000	0.000000
-0.341423	-1.065000	0.000000
0.658577	-1.065000	95.399055
1.658577	-1.065000	93.523392
2.658577	-1.065000	52.190506
3.658577	-1.065000	17.376865
4.658577	-1.065000	22.206312
5.658577	-1.065000	52.969498
6.658577	-1.065000	20.340591
7.658577	-1.065000	47.364098
8.658577	-1.065000	14.394211
9.658577	-1.065000	37.482079
10.658577	-1.065000	32.124283
11.658577	-1.065000	96.048889
12.658577	-1.065000	98.538788
13.658577	-1.065000	93.998222
14.658577	-1.065000	94.030945
15.658577	-1.065000	97.435158
16.658577	-1.065000	61.686745
17.658577	-1.065000	53.530117
18.658577	-1.065000	14.834126
19.658577	-1.065000	48.415966
20.658577	-1.065000	32.246387
21.658577	-1.065000	52.987839
22.658577	-1.065000	10.893415
23.658577	-1.065000	18.166771
24.658577	-1.065000	20.969200
-39.341423	-0.065000	4.645160
-38.341423	-0.065000	5.463399
-37.341423	-0.065000	7.593178
-36.341423	-0.065000	2.325728
-35.341423	-0.065000	8.978250
-34.341423	-0.065000	23.629690
-33.341423	-0.065000	26.303528
-32.341423	-0.065000	15.579638
-31.341423	-0.065000	13.931229
-30.341423	-0.065000	6.261127
-29.341423	-0.065000	5.854407
-28.341423	-0.065000	0.000000
-27.341423	-0.065000	1.968215
-26.341423	-0.065000	13.158745
-25.341423	-0.065000	88.066833
-24.341423	-0.065000	100.459541
-23.341423	-0.065000	80.825752
-22.341423	-0.065000	16.791307
-21.341423	-0.065000	7.843172
-20.341423	-0.065000	13.884885
-19.341423	-0.065000	57.620781
-18.341423	-0.065000	53.984547
-17.341423	-0.065000	27.853098
-16.341423	-0.065000	43.075024
-15.341423	-0.065000	26.788277
-14.341423	-0.065000	106.562012
-13.341423	-0.065000	105.507004
-12.341423	-0.065000	124.326355
-11.341423	-0.065000	115.372200
-10.341423	-0.065000	76.166344
-9.341423	-0.065000	48.215088
-8.341423	-0.065000	66.282303
-7.341423	-0.065000	52.789387
-6.341423	-0.065000	66.731842
-5.341423	-0.065000	148.204330
-4.341423	-0.065000	102.235947
-3.341423	-0.065000	71.657181
-2.341423	-0.065000	99.563271
-1.341423	-0.065000	121.147713
-0.341423	-0.065000	0.000000
0.658577	-0.065000	0.000000
1.658577	-0.065000	85.887581
2.658577	-0.065000	25.560091
3.658577	-0.065000	24.324343
4.658577	-0.065000	29.088726
5.658577	-0.065000	66.798569
6.658577	-0.065000	36.893330
7.658577	-0.065000	61.659721
8.658577	-0.065000	59.617073
9.658577	-0.065000	68.087166
10.658577	-0.065000	79.369041
11.658577	-0.065000	149.658112
12.658577	-0.065000	0.000000
13.658577	-0.065000	0.000000
14.658577	-0.065000	82.057846
15.658577	-0.065000	74.766159
16.658577	-0.065000	70.674866
17.658577	-0.065000	60.810081
18.658577	-0.065000	8.716065
19.658577	-0.065000	10.195314
20.658577	-0.065000	53.384956
21.658577	-0.065000	68.688576
22.658577	-0.065000	0.288055
23.658577	-0.065000	16.216337
24.658577	-0.065000	23.317501
-39.341423	0.935000	5.923692
-38.341423	0.935000	5.552762
-37.341423	0.935000	15.187800
-36.341423	0.935000	4.700863
-35.341423	0.935000	13.047664
-34.341423	0.935000	23.345318
-33.341423	0.935000	34.149117
-32.341423	0.935000	21.311794
-31.341423	0.935000	33.866890
-30.341423	0.935000	9.396774
-29.341423	0.935000	1.586755
-28.341423	0.935000	2.623719
-27.341423	0.935000	3.215814
-26.341423	0.935000	18.163340
-25.341423	0.935000	34.746319
-24.341423	0.935000	74.915474
-23.341423	0.935000	107.436897
-22.341423	0.935000	98.586060
-21.341423	0.935000	55.400326
-20.341423	0.935000	29.988068
-19.341423	0.935000	59.056419
-18.341423	0.935000	29.924715
-17.341423	0.935000	41.101295
-16.341423	0.935000	16.837597
-15.341423	0.935000	29.649963
-14.341423	0.935000	0.000000
-13.341423	0.935000	114.283806
-12.341423	0.935000	0.000000
-11.341423	0.935000	0.000000
-10.341423	0.935000	122.483315
-9.341423	0.935000	68.558144
-8.341423	0.935000	57.922539
-7.341423	0.935000	57.744415
-6.341423	0.935000	67.394104
-5.341423	0.935000	0.000000
-4.341423	0.935000	145.936035
-3.341423	0.935000	54.943432
-2.341423	0.935000	106.912064
-1.341423	0.935000	121.377380
-0.341423	0.935000	108.266327
0.658577	0.935000	82.537407
1.658577	0.935000	26.199577
2.658577	0.935000	25.139790
3.658577	0.935000	36.755360
4.658577	0.935000	57.090118
5.658577	0.935000	91.539703
6.658577	0.935000	0.000000
7.658577	0.935000	81.710373
8.658577	0.935000	88.162369
9.658577	0.935000	109.629372
10.658577	0.935000	109.911530
11.658577	0.935000	111.693321
12.658577	0.935000	134.331375
13.658577	0.935000	90.408905
14.658577	0.935000	61.477135
15.658577	0.935000	76.334145
16.658577	0.935000	70.848648
17.658577	0.935000	68.348122
18.658577	0.935000	38.105396
19.658577	0.935000	48.977386
20.658577	0.935000	71.051796
21.658577	0.935000	91.200218
22.658577	0.935000	91.565918
23.658577	0.935000	60.945004
24.658577	0.935000	27.550259
-39.341423	1.935000	4.764732
-38.341423	1.935000	3.292908
-37.341423	1.935000	11.686683
-36.341423	1.935000	29.225899
-35.341423	1.935000	49.202000
-34.341423	1.935000	23.006023
-33.341423	1.935000	32.997337
-32.341423	1.935000	78.650650
-31.341423	1.935000	50.052307
-30.341423	1.935000	34.449207
-29.341423	1.935000	17.665226
-28.341423	1.935000	5.246453
-27.341423	1.935000	11.979146
-26.341423	1.935000	51.969788
-25.341423	1.935000	10.713988
-24.341423	1.935000	25.556232
-23.341423	1.935000	53.079124
-22.341423	1.935000	97.588509
-21.341423	1.935000	116.964989
-20.341423	1.935000	87.803795
-19.341423	1.935000	14.658592
-18.341423	1.935000	3.589307
-17.341423	1.935000	77.029404
-16.341423	1.935000	2.164004
-15.341423	1.935000	13.165694
-14.341423	1.935000	145.002823
-13.341423	1.935000	173.099823
-12.341423	1.935000	0.000000
-11.341423	1.935000	118.802940
-10.341423	1.935000	112.070564
-9.341423	1.935000	74.998749
-8.341423	1.935000	77.578613
-7.341423	1.935000	56.097321
-6.341423	1.935000	70.243988
-5.341423	1.935000	130.395905
-4.341423	1.935000	0.000000
-3.341423	1.935000	122.658119
-2.341423	1.935000	119.302811
-1.341423	1.935000	118.687363
-0.341423	1.935000	101.296326
0.658577	1.935000	66.284126
1.658577	1.935000	17.009577
2.658577	1.935000	38.665871
3.658577	1.935000	35.985104
4.658577	1.935000	41.554539
5.658577	1.935000	82.117622
6.658577	1.935000	107.876884
7.658577	1.935000	72.731903
8.658577	1.935000	51.823227
9.658577	1.935000	0.000000
10.658577	1.935000	102.790024
11.658577	1.935000	100.962761
12.658577	1.935000	0.000000
13.658577	1.935000	329.843445
14.658577	1.935000	103.129440
15.658577	1.935000	66.947441
16.658577	1.935000	50.509251
17.658577	1.935000	86.841270
18.658577	1.935000	19.228992
19.658577	1.935000	27.512121
20.658577	1.935000	60.075237
21.658577	1.935000	68.355881
22.658577	1.935000	72.235245
23.658577	1.935000	75.741539
24.658577	1.935000	101.155464
-39.341423	2.935000	19.496494
-38.341423	2.935000	34.691208
-37.341423	2.935000	48.966412
-36.341423	2.935000	34.187641
-35.341423	2.935000	34.528843
-34.341423	2.935000	9.079309
-33.341423	2.935000	24.749540
-32.341423	2.935000	52.265308
-31.341423	2.935000	41.283112
-30.341423	2.935000	43.692448
-29.341423	2.935000	56.727608
-28.341423	2.935000	46.914196
-27.341423	2.935000	60.888016
-26.341423	2.935000	82.156395
-25.341423	2.935000	128.703094
-24.341423	2.935000	38.166626
-23.341423	2.935000	36.022114
-22.341423	2.935000	51.789658
-21.341423	2.935000	113.865723
-20.341423	2.935000	52.809246
-19.341423	2.935000	8.394238
-18.341423	2.935000	7.108774
-17.341423	2.935000	4.064510
-16.341423	2.935000	0.000000
-15.341423	2.935000	3.700463
-14.341423	2.935000	14.253310
-13.341423	2.935000	37.462086
-12.341423	2.935000	86.872902
-11.341423	2.935000	95.757057
-10.341423	2.935000	0.000000
-9.341423	2.935000	79.503540
-8.341423	2.935000	87.340271
-7.341423	2.935000	58.967804
-6.341423	2.935000	75.881439
-5.341423	2.935000	0.000000
-4.341423	2.935000	0.000000
-3.341423	2.935000	100.975700
-2.341423	2.935000	0.000000
-1.341423	2.935000	97.533478
-0.341423	2.935000	89.093605
0.658577	2.935000	86.965729
1.658577	2.935000	76.062126
2.658577	2.935000	56.618366
3.658577	2.935000	36.897713
4.658577	2.935000	47.114052
5.658577	2.935000	50.096626
6.658577	2.935000	5.061525
7.658577	2.935000	11.262934
8.658577	2.935000	99.370621
9.658577	2.935000	114.596352
10.658577	2.935000	0.000000
11.658577	2.935000	77.358063
12.658577	2.935000	70.688530
13.658577	2.935000	0.000000
14.658577	2.935000	131.485291
15.658577	2.935000	69.861893
16.658577	2.935000	57.984074
17.658577	2.935000	90.597107
18.658577	2.935000	23.697193
19.658577	2.935000	7.201407
20.658577	2.935000	23.813139
21.658577	2.935000	54.673542
22.658577	2.935000	87.699883
23.658577	2.935000	111.222382
24.658577	2.935000	34.178558
-39.341423	3.935000	69.714523
-38.341423	3.935000	62.800114
-37.341423	3.935000	47.948647
-36.341423	3.935000	62.174099
-35.341423	3.935000	55.351284
-34.341423	3.935000	15.818022
-33.341423	3.935000	12.817486
-32.341423	3.935000	36.292923
-31.341423	3.935000	48.400894
-30.341423	3.935000	57.027065
-29.341423	3.935000	79.575081
-28.341423	3.935000	112.662163
-27.341423	3.935000	91.285439
-26.341423	3.935000	87.157936
-25.341423	3.935000	128.879562
-24.341423	3.935000	76.229317
-23.341423	3.935000	28.522371
-22.341423	3.935000	54.665279
-21.341423	3.935000	0.000000
-20.341423	3.935000	93.868340
-19.341423	3.935000	44.323170
-18.341423	3.935000	83.612862
-17.341423	3.935000	65.558128
-16.341423	3.935000	5.143946
-15.341423	3.935000	15.955046
-14.341423	3.935000	0.606455
-13.341423	3.935000	12.170855
-12.341423	3.935000	57.766697
-11.341423	3.935000	0.000000
-10.341423	3.935000	108.834366
-9.341423	3.935000	69.846397
-8.341423	3.935000	40.716049
-7.341423	3.935000	45.031132
-6.341423	3.935000	33.684921
-5.341423	3.935000	96.962029
-4.341423	3.935000	17.073706
-3.341423	3.935000	63.616135
-2.341423	3.935000	113.643974
-1.341423	3.935000	0.000000
-0.341423	3.935000	0.000000
0.658577	3.935000	115.091805
1.658577	3.935000	86.718925
2.658577	3.935000	53.626701
3.658577	3.935000	47.685596
4.658577	3.935000	57.037552
5.658577	3.935000	90.272179
6.658577	3.935000	65.140556
7.658577	3.935000	58.697201
8.658577	3.935000	125.567963
9.658577	3.935000	111.938057
10.658577	3.935000	76.031952
11.658577	3.935000	82.965210
12.658577	3.935000	60.304047
13.658577	3.935000	94.897224
14.658577	3.935000	129.584473
15.658577	3.935000	72.107399
16.658577	3.935000	69.145409
17.658577	3.935000	89.859703
18.658577	3.935000	0.000000
19.658577	3.935000	0.000000
20.658577	3.935000	0.000000
21.658577	3.935000	68.922272
22.658577	3.935000	97.231071
23.658577	3.935000	52.433052
24.658577	3.935000	20.283926
-39.341423	4.935000	13.978692
-38.341423	4.935000	105.808739
-37.341423	4.935000	0.000000
-36.341423	4.935000	167.803925
-35.341423	4.935000	142.004959
-34.341423	4.935000	79.618248
-33.341423	4.935000	31.070669
-32.341423	4.935000	50.124954
-31.341423	4.935000	49.261593
-30.341423	4.935000	54.867634
-29.341423	4.935000	54.995235
-28.341423	4.935000	37.677399
-27.341423	4.935000	44.454296
-26.341423	4.935000	36.654415
-25.341423	4.935000	118.461555
-24.341423	4.935000	76.459755
-23.341423	4.935000	71.961853
-22.341423	4.935000	63.094700
-21.341423	4.935000	41.947063
-20.341423	4.935000	41.076122
-19.341423	4.935000	99.686546
-18.341423	4.935000	97.713844
-17.341423	4.935000	103.676926
-16.341423	4.935000	73.976135
-15.341423	4.935000	60.770580
-14.341423	4.935000	33.724915
-13.341423	4.935000	2.575790
-12.341423	4.935000	15.999573
-11.341423	4.935000	56.064407
-10.341423	4.935000	69.932838
-9.341423	4.935000	108.320396
-8.341423	4.935000	52.756931
-7.341423	4.935000	47.886059
-6.341423	4.935000	5.927918
-5.341423	4.935000	2.229380
-4.341423	4.935000	5.221591
-3.341423	4.935000	21.358198
-2.341423	4.935000	0.000000
-1.341423	4.935000	75.954506
-0.341423	4.935000	0.000000
0.658577	4.935000	0.000000
1.658577	4.935000	75.108276
2.658577	4.935000	44.392143
3.658577	4.935000	41.661972
4.658577	4.935000	29.458641
5.658577	4.935000	53.809383
6.658577	4.935000	0.000000
7.658577	4.935000	89.660805
8.658577	4.935000	128.077759
9.658577	4.935000	136.733673
10.658577	4.935000	100.772385
11.658577	4.935000	78.867126
12.658577	4.935000	78.286041
13.658577	4.935000	86.987907
14.658577	4.935000	118.618355
15.658577	4.935000	0.000000
16.658577	4.935000	78.625496
17.658577	4.935000	81.682907
18.658577	4.935000	0.000000
19.658577	4.935000	0.000000
20.658577	4.935000	57.304768
21.658577	4.935000	87.700623
22.658577	4.935000	0.000000
23.658577	4.935000	66.388435
24.658577	4.935000	25.293711
-39.341423	5.935000	185.399002
-38.341423	5.935000	151.608551
-37.341423	5.935000	0.000000
-36.341423	5.935000	138.378281
-35.341423	5.935000	142.482803
-34.341423	5.935000	115.086288
-33.341423	5.935000	52.581894
-32.341423	5.935000	79.689064
-31.341423	5.935000	22.806021
-30.341423	5.935000	10.975668
-29.341423	5.935000	9.964801
-28.341423	5.935000	1.074365
-27.341423	5.935000	9.247610
-26.341423	5.935000	61.296673
-25.341423	5.935000	108.983017
-24.341423	5.935000	110.262062
-23.341423	5.935000	78.356888
-22.341423	5.935000	24.360016
-21.341423	5.935000	13.393464
-20.341423	5.935000	37.622829
-19.341423	5.935000	0.000000
-18.341423	5.935000	99.026665
-17.341423	5.935000	22.774052
-16.341423	5.935000	100.273178
-15.341423	5.935000	150.177948
-14.341423	5.935000	100.281479
-13.341423	5.935000	14.185105
-12.341423	5.935000	16.658535
-11.341423	5.935000	69.223671
-10.341423	5.935000	94.908669
-9.341423	5.935000	808.499329
-8.341423	5.935000	78.624588
-7.341423	5.935000	27.705254
-6.341423	5.935000	66.876419
-5.341423	5.935000	5.043888
-4.341423	5.935000	3.463942
-3.341423	5.935000	70.657478
-2.341423	5.935000	80.441872
-1.341423	5.935000	91.340736
-0.341423	5.935000	81.911873
0.658577	5.935000	0.000000
1.658577	5.935000	0.000000
2.658577	5.935000	72.085060
3.658577	5.935000	37.711994
4.658577	5.935000	17.447128
5.658577	5.935000	36.585583
6.658577	5.935000	54.590992
7.658577	5.935000	65.715157
8.658577	5.935000	53.460438
9.658577	5.935000	101.701462
10.658577	5.935000	171.599442
11.658577	5.935000	114.765633
12.658577	5.935000	84.831444
13.658577	5.935000	83.084244
14.658577	5.935000	95.955986
15.658577	5.935000	0.000000
16.658577	5.935000	8.375240
17.658577	5.935000	36.709888
18.658577	5.935000	122.233147
19.658577	5.935000	69.310165
20.658577	5.935000	93.813957
21.658577	5.935000	114.823036
22.658577	5.935000	79.545876
23.658577	5.935000	80.377266
24.658577	5.935000	38.358387
-39.341423	6.935000	171.370590
-38.341423	6.935000	0.000000
-37.341423	6.935000	165.255600
-36.341423	6.935000	0.000000
-35.341423	6.935000	142.281738
-34.341423	6.935000	116.655128
-33.341423	6.935000	106.553856
-32.341423	6.935000	111.962822
-31.341423	6.935000	40.146889
-30.341423	6.935000	69.964714
-29.341423	6.935000	53.405144
-28.341423	6.935000	2.148815
-27.341423	6.935000	16.562084
-26.341423	6.935000	38.869041
-25.341423	6.935000	52.897770
-24.341423	6.935000	0.000000
-23.341423	6.935000	38.082497
-22.341423	6.935000	35.175705
-21.341423	6.935000	37.466930
-20.341423	6.935000	0.000000
-19.341423	6.935000	9.390333
-18.341423	6.935000	106.873672
-17.341423	6.935000	97.157379
-16.341423	6.935000	99.030273
-15.341423	6.935000	135.163925
-14.341423	6.935000	108.838737
-13.341423	6.935000	87.161469
-12.341423	6.935000	30.314400
-11.341423	6.935000	17.397779
-10.341423	6.935000	29.246801
-9.341423	6.935000	37.622028
-8.341423	6.935000	56.159809
-7.341423	6.935000	59.444813
-6.341423	6.935000	52.795300
-5.341423	6.935000	26.005033
-4.341423	6.935000	14.270808
-3.341423	6.935000	52.671001
-2.341423	6.935000	89.027008
-1.341423	6.935000	0.000000
-0.341423	6.935000	81.518745
0.658577	6.935000	0.000000
1.658577	6.935000	76.610779
2.658577	6.935000	45.590534
3.658577	6.935000	10.730392
4.658577	6.935000	13.891506
5.658577	6.935000	25.359428
6.658577	6.935000	69.847466
7.658577	6.935000	59.907021
8.658577	6.935000	57.235676
9.658577	6.935000	58.943874
10.658577	6.935000	0.000000
11.658577	6.935000	100.379333
12.658577	6.935000	111.205185
13.658577	6.935000	96.849937
14.658577	6.935000	14.476152
15.658577	6.935000	51.393677
16.658577	6.935000	33.957844
17.658577	6.935000	30.441116
18.658577	6.935000	98.412552
19.658577	6.935000	44.829460
20.658577	6.935000	103.290100
21.658577	6.935000	106.628143
22.658577	6.935000	44.133404
23.658577	6.935000	106.133553
24.658577	6.935000	79.768982
-39.341423	7.935000	143.188766
-38.341423	7.935000	150.223923
-37.341423	7.935000	156.217117
-36.341423	7.935000	150.983765
-35.341423	7.935000	137.210297
-34.341423	7.935000	139.640793
-33.341423	7.935000	129.627411
-32.341423	7.935000	118.667015
-31.341423	7.935000	83.000145
-30.341423	7.935000	94.615639
-29.341423	7.935000	79.842705
-28.341423	7.935000	26.586622
-27.341423	7.935000	38.842747
-26.341423	7.935000	39.369251
-25.341423	7.935000	56.200115
-24.341423	7.935000	47.274643
-23.341423	7.935000	48.211765
-22.341423	7.935000	27.870447
-21.341423	7.935000	29.726824
-20.341423	7.935000	60.056957
-19.341423	7.935000	55.752365
-18.341423	7.935000	81.249016
-17.341423	7.935000	46.850426
-16.341423	7.935000	95.941887
-15.341423	7.935000	180.554092
-14.341423	7.935000	86.984642
-13.341423	7.935000	58.617184
-12.341423	7.935000	119.733604
-11.341423	7.935000	34.470322
-10.341423	7.935000	20.534899
-9.341423	7.935000	25.880367
-8.341423	7.935000	21.145567
-7.341423	7.935000	23.886993
-6.341423	7.935000	44.806545
-5.341423	7.935000	72.449608
-4.341423	7.935000	32.179283
-3.341423	7.935000	48.084702
-2.341423	7.935000	0.000000
-1.341423	7.935000	87.780319
-0.341423	7.935000	103.509651
0.658577	7.935000	1.503549
1.658577	7.935000	72.902031
2.658577	7.935000	71.236107
3.658577	7.935000	41.269016
4.658577	7.935000	36.151806
5.658577	7.935000	20.891722
6.658577	7.935000	17.471666
7.658577	7.935000	35.882797
8.658577	7.935000	81.997894
9.658577	7.935000	72.788971
10.658577	7.935000	0.000000
11.658577	7.935000	92.463188
12.658577	7.935000	0.000000
13.658577	7.935000	63.825394
14.658577	7.935000	44.157082
15.658577	7.935000	41.808495
16.658577	7.935000	41.052616
17.658577	7.935000	52.882309
18.658577	7.935000	34.866615
19.658577	7.935000	4.178961
20.658577	7.935000	29.271849
21.658577	7.935000	0.000000
22.658577	7.935000	80.125900
23.658577	7.935000	77.893578
24.658577	7.935000	116.485565
-39.341423	8.935000	0.000000
-38.341423	8.935000	0.000000
-37.341423	8.935000	129.429428
-36.341423	8.935000	113.060829
-35.341423	8.935000	133.390930
-34.341423	8.935000	161.790359
-33.341423	8.935000	142.821381
-32.341423	8.935000	132.288956
-31.341423	8.935000	122.982338
-30.341423	8.935000	96.371101
-29.341423	8.935000	78.043800
-28.341423	8.935000	66.843536
-27.341423	8.935000	58.181744
-26.341423	8.935000	54.077179
-25.341423	8.935000	57.403442
-24.341423	8.935000	44.487785
-23.341423	8.935000	28.209612
-22.341423	8.935000	40.772602
-21.341423	8.935000	37.227543
-20.341423	8.935000	55.994293
-19.341423	8.935000	64.906929
-18.341423	8.935000	70.675301
-17.341423	8.935000	105.445320
-16.341423	8.935000	131.104599
-15.341423	8.935000	203.380585
-14.341423	8.935000	87.762650
-13.341423	8.935000	105.580200
-12.341423	8.935000	62.359150
-11.341423	8.935000	32.075134
-10.341423	8.935000	18.125673
-9.341423	8.935000	22.133627
-8.341423	8.935000	17.181396
-7.341423	8.935000	24.332506
-6.341423	8.935000	55.540745
-5.341423	8.935000	46.662426
-4.341423	8.935000	43.144505
-3.341423	8.935000	53.021519
-2.341423	8.935000	76.222939
-1.341423	8.935000	0.000000
-0.341423	8.935000	0.000000
0.658577	8.935000	0.000000
1.658577	8.935000	61.871983
2.658577	8.935000	35.762463
3.658577	8.935000	14.562266
4.658577	8.935000	71.935791
5.658577	8.935000	23.458881
6.658577	8.935000	17.480732
7.658577	8.935000	20.084806
8.658577	8.935000	17.103886
9.658577	8.935000	48.314590
10.658577	8.935000	44.839066
11.658577	8.935000	30.402102
12.658577	8.935000	78.240448
13.658577	8.935000	8.492196
14.658577	8.935000	35.967030
15.658577	8.935000	5.043312
16.658577	8.935000	9.220925
17.658577	8.935000	55.740555
18.658577	8.935000	3.136029
19.658577	8.935000	1.698660
20.658577	8.935000	1.323420
21.658577	8.935000	5.508989
22.658577	8.935000	5.285926
23.658577	8.935000	5.484766
24.658577	8.935000	36.091244
-39.341423	9.935000	127.212822
-38.341423	9.935000	109.509171
-37.341423	9.935000	104.936272
-36.341423	9.935000	105.255882
-35.341423	9.935000	145.739777
-34.341423	9.935000	0.000000
-33.341423	9.935000	129.599609
-32.341423	9.935000	0.000000
-31.341423	9.935000	50.559616
-30.341423	9.935000	118.533333
-29.341423	9.935000	112.454262
-28.341423	9.935000	83.384674
-27.341423	9.935000	61.778538
-26.341423	9.935000	54.391651
-25.341423	9.935000	41.633568
-24.341423	9.935000	12.531262
-23.341423	9.935000	35.115002
-22.341423	9.935000	49.022655
-21.341423	9.935000	63.256969
-20.341423	9.935000	51.013325
-19.341423	9.935000	69.527199
-18.341423	9.935000	69.574249
-17.341423	9.935000	116.139458
-16.341423	9.935000	0.000000
-15.341423	9.935000	93.210663
-14.341423	9.935000	130.605865
-13.341423	9.935000	81.112289
-12.341423	9.935000	72.150253
-11.341423	9.935000	31.757027
-10.341423	9.935000	22.525536
-9.341423	9.935000	21.518496
-8.341423	9.935000	24.095722
-7.341423	9.935000	40.346581
-6.341423	9.935000	112.643234
-5.341423	9.935000	0.000000
-4.341423	9.935000	79.285286
-3.341423	9.935000	41.454712
-2.341423	9.935000	63.975494
-1.341423	9.935000	0.000000
-0.341423	9.935000	121.094711
0.658577	9.935000	78.795204
1.658577	9.935000	38.904743
2.658577	9.935000	46.224239
3.658577	9.935000	37.813637
4.658577	9.935000	27.581955
5.658577	9.935000	14.053943
6.658577	9.935000	12.922056
7.658577	9.935000	35.411125
8.658577	9.935000	24.077456
9.658577	9.935000	49.088139
10.658577	9.935000	43.515377
11.658577	9.935000	49.094158
12.658577	9.935000	30.983427
13.658577	9.935000	4.479326
14.658577	9.935000	1.168420
15.658577	9.935000	1.145085
16.658577	9.935000	0.170068
17.658577	9.935000	3.130029
18.658577	9.935000	3.202236
19.658577	9.935000	2.739312
20.658577	9.935000	7.176433
21.658577	9.935000	28.726572
22.658577	9.935000	12.874098
23.658577	9.935000	3.516363
24.658577	9.935000	3.644836
-39.341423	10.935000	87.356949
-38.341423	10.935000	100.913925
-37.341423	10.935000	103.741333
-36.341423	10.935000	139.252991
-35.341423	10.935000	119.155769
-34.341423	10.935000	118.937584
-33.341423	10.935000	86.744453
-32.341423	10.935000	116.417366
-31.341423	10.935000	153.708954
-30.341423	10.935000	6.220111
-29.341423	10.935000	0.000000
-28.341423	10.935000	0.000000
-27.341423	10.935000	40.454468
-26.341423	10.935000	43.836037
-25.341423	10.935000	11.075835
-24.341423	10.935000	2.064176
-23.341423	10.935000	12.421356
-22.341423	10.935000	48.625225
-21.341423	10.935000	21.284683
-20.341423	10.935000	41.463017
-19.341423	10.935000	73.031227
-18.341423	10.935000	71.074829
-17.341423	10.935000	60.988010
-16.341423	10.935000	44.878296
-15.341423	10.935000	109.197830
-14.341423	10.935000	87.204384
-13.341423	10.935000	79.337021
-12.341423	10.935000	35.433075
-11.341423	10.935000	21.223906
-10.341423	10.935000	24.934961
-9.341423	10.935000	23.702061
-8.341423	10.935000	25.383625
-7.341423	10.935000	40.574673
-6.341423	10.935000	90.998131
-5.341423	10.935000	0.000000
-4.341423	10.935000	86.885429
-3.341423	10.935000	22.201797
-2.341423	10.935000	42.912247
-1.341423	10.935000	98.182686
-0.341423	10.935000	98.214783
0.658577	10.935000	94.324814
1.658577	10.935000	56.230156
2.658577	10.935000	57.667583
3.658577	10.935000	57.276882
4.658577	10.935000	14.784705
5.658577	10.935000	16.540854
6.658577	10.935000	23.507782
7.658577	10.935000	51.863079
8.658577	10.935000	10.661651
9.658577	10.935000	18.483259
10.658577	10.935000	13.623497
11.658577	10.935000	36.500908
12.658577	10.935000	42.383049
13.658577	10.935000	6.115962
14.658577	10.935000	1.707958
15.658577	10.935000	0.000000
16.658577	10.935000	7.812922
17.658577	10.935000	7.731775
18.658577	10.935000	6.621336
19.658577	10.935000	4.614826
20.658577	10.935000	27.780571
21.658577	10.935000	31.276613
22.658577	10.935000	28.391085
23.658577	10.935000	7.796060
24.658577	10.935000	13.550495
-39.341423	11.935000	0.000000
-38.341423	11.935000	114.802383
-37.341423	11.935000	33.081688
-36.341423	11.935000	126.190079
-35.341423	11.935000	97.423752
-34.341423	11.935000	103.175346
-33.341423	11.935000	80.184731
-32.341423	11.935000	106.680565
-31.341423	11.935000	0.000000
-30.341423	11.935000	155.846664
-29.341423	11.935000	155.555420
-28.341423	11.935000	111.770500
-27.341423	11.935000	10.426468
-26.341423	11.935000	33.321510
-25.341423	11.935000	3.266959
-24.341423	11.935000	3.716593
-23.341423	11.935000	26.268856
-22.341423	11.935000	45.441330
-21.341423	11.935000	31.017775
-20.341423	11.935000	34.649815
-19.341423	11.935000	77.358704
-18.341423	11.935000	43.198513
-17.341423	11.935000	28.768036
-16.341423	11.935000	45.223629
-15.341423	11.935000	122.079170
-14.341423	11.935000	123.437614
-13.341423	11.935000	0.000000
-12.341423	11.935000	38.655865
-11.341423	11.935000	19.031784
-10.341423	11.935000	16.245787
-9.341423	11.935000	24.044567
-8.341423	11.935000	27.610525
-7.341423	11.935000	34.953407
-6.341423	11.935000	35.890781
-5.341423	11.935000	87.524467
-4.341423	11.935000	69.950821
-3.341423	11.935000	38.767426
-2.341423	11.935000	23.650467
-1.341423	11.935000	113.805351
-0.341423	11.935000	103.876518
0.658577	11.935000	97.053749
1.658577	11.935000	67.333282
2.658577	11.935000	48.452137
3.658577	11.935000	14.079040
4.658577	11.935000	6.893925
5.658577	11.935000	29.961832
6.658577	11.935000	65.019661
7.658577	11.935000	14.509318
8.658577	11.935000	75.686142
9.658577	11.935000	45.545555
10.658577	11.935000	85.976067
11.658577	11.935000	84.500259
12.658577	11.935000	69.068680
13.658577	11.935000	18.348856
14.658577	11.935000	2.334529
15.658577	11.935000	3.788335
16.658577	11.935000	16.382624
17.658577	11.935000	16.944809
18.658577	11.935000	12.072943
19.658577	11.935000	0.000000
20.658577	11.935000	6.546557
21.658577	11.935000	18.995829
22.658577	11.935000	33.149216
23.658577	11.935000	40.705650
24.658577	11.935000	38.693798
-39.341423	12.935000	123.786095
-38.341423	12.935000	130.274673
-37.341423	12.935000	111.179108
-36.341423	12.935000	119.248909
-35.341423	12.935000	122.456673
-34.341423	12.935000	117.854736
-33.341423	12.935000	121.019951
-32.341423	12.935000	108.204422
-31.341423	12.935000	134.770737
-30.341423	12.935000	0.000000
-29.341423	12.935000	137.139877
-28.341423	12.935000	56.149807
-27.341423	12.935000	19.858871
-26.341423	12.935000	8.423818
-25.341423	12.935000	2.151908
-24.341423	12.935000	26.966473
-23.341423	12.935000	66.726563
-22.341423	12.935000	76.399162
-21.341423	12.935000	58.644180
-20.341423	12.935000	66.523338
-19.341423	12.935000	107.695595
-18.341423	12.935000	70.516129
-17.341423	12.935000	31.116222
-16.341423	12.935000	41.998474
-15.341423	12.935000	115.332191
-14.341423	12.935000	116.706474
-13.341423	12.935000	62.099800
-12.341423	12.935000	31.517042
-11.341423	12.935000	36.323963
-10.341423	12.935000	28.123489
-9.341423	12.935000	25.389204
-8.341423	12.935000	22.379969
-7.341423	12.935000	37.142197
-6.341423	12.935000	8.919987
-5.341423	12.935000	44.836308
-4.341423	12.935000	98.448364
-3.341423	12.935000	66.875290
-2.341423	12.935000	39.366920
-1.341423	12.935000	60.595562
-0.341423	12.935000	53.387039
0.658577	12.935000	69.903656
1.658577	12.935000	45.473637
2.658577	12.935000	66.492645
3.658577	12.935000	19.598770
4.658577	12.935000	10.298692
5.658577	12.935000	32.915054
6.658577	12.935000	98.391296
7.658577	12.935000	88.947945
8.658577	12.935000	53.279251
9.658577	12.935000	94.036957
10.658577	12.935000	83.625580
11.658577	12.935000	98.794113
12.658577	12.935000	50.032021
13.658577	12.935000	16.214754
14.658577	12.935000	2.413325
15.658577	12.935000	6.572526
16.658577	12.935000	9.519485
17.658577	12.935000	12.513262
18.658577	12.935000	2.736349
19.658577	12.935000	3.080055
20.658577	12.935000	2.449578
21.658577	12.935000	3.094511
22.658577	12.935000	10.204215
23.658577	12.935000	23.021774
24.658577	12.935000	5.658977
-39.341423	13.935000	122.158089
-38.341423	13.935000	128.011993
-37.341423	13.935000	152.905151
-36.341423	13.935000	130.285782
-35.341423	13.935000	0.000000
-34.341423	13.935000	0.000000
-33.341423	13.935000	107.746445
-32.341423	13.935000	115.701576
-31.341423	13.935000	139.452438
-30.341423	13.935000	0.000000
-29.341423	13.935000	0.000000
-28.341423	13.935000	43.781002
-27.341423	13.935000	37.945496
-26.341423	13.935000	28.779715
-25.341423	13.935000	10.376156
-24.341423	13.935000	26.733917
-23.341423	13.935000	43.819164
-22.341423	13.935000	62.078888
-21.341423	13.935000	88.989433
-20.341423	13.935000	25.197336
-19.341423	13.935000	81.447960
-18.341423	13.935000	81.169312
-17.341423	13.935000	27.753767
-16.341423	13.935000	44.184242
-15.341423	13.935000	62.706089
-14.341423	13.935000	116.318459
-13.341423	13.935000	81.459297
-12.341423	13.935000	36.695179
-11.341423	13.935000	51.826225
-10.341423	13.935000	11.361897
-9.341423	13.935000	42.111107
-8.341423	13.935000	24.643644
-7.341423	13.935000	42.399254
-6.341423	13.935000	34.825256
-5.341423	13.935000	59.644238
-4.341423	13.935000	53.256115
-3.341423	13.935000	55.860977
-2.341423	13.935000	21.089289
-1.341423	13.935000	33.397190
-0.341423	13.935000	26.711494
0.658577	13.935000	68.620193
1.658577	13.935000	43.244770
2.658577	13.935000	67.044128
3.658577	13.935000	12.587336
4.658577	13.935000	1.006270
5.658577	13.935000	3.160004
6.658577	13.935000	36.204700
7.658577	13.935000	71.876663
8.658577	13.935000	62.441097
9.658577	13.935000	69.080742
10.658577	13.935000	79.877838
11.658577	13.935000	57.543274
12.658577	13.935000	46.096764
13.658577	13.935000	2.665471
14.658577	13.935000	1.234348
15.658577	13.935000	4.788635
16.658577	13.935000	8.339131
17.658577	13.935000	9.757391
18.658577	13.935000	2.910306
19.658577	13.935000	1.758018
20.658577	13.935000	3.693524
21.658577	13.935000	2.244640
22.658577	13.935000	1.885666
23.658577	13.935000	8.053233
24.658577	13.935000	5.502767
-39.341423	14.935000	0.000000
-38.341423	14.935000	22.708759
-37.341423	14.935000	143.877533
-36.341423	14.935000	142.679947
-35.341423	14.935000	14.379779
-34.341423	14.935000	114.999260
-33.341423	14.935000	118.765152
-32.341423	14.935000	138.036835
-31.341423	14.935000	132.152374
-30.341423	14.935000	97.691216
-29.341423	14.935000	52.576893
-28.341423	14.935000	44.192657
-27.341423	14.935000	38.117344
-26.341423	14.935000	31.579483
-25.341423	14.935000	26.163916
-24.341423	14.935000	15.796380
-23.341423	14.935000	12.060826
-22.341423	14.935000	36.250401
-21.341423	14.935000	102.954521
-20.341423	14.935000	72.387131
-19.341423	14.935000	73.011543
-18.341423	14.935000	44.323460
-17.341423	14.935000	36.613506
-16.341423	14.935000	91.956879
-15.341423	14.935000	63.483150
-14.341423	14.935000	41.204189
-13.341423	14.935000	61.601685
-12.341423	14.935000	56.875996
-11.341423	14.935000	21.331316
-10.341423	14.935000	2.344859
-9.341423	14.935000	4.758089
-8.341423	14.935000	31.160744
-7.341423	14.935000	79.565308
-6.341423	14.935000	0.000000
-5.341423	14.935000	39.407238
-4.341423	14.935000	38.459812
-3.341423	14.935000	30.480822
-2.341423	14.935000	3.908477
-1.341423	14.935000	48.367012
-0.341423	14.935000	51.656601
0.658577	14.935000	44.422825
1.658577	14.935000	74.530334
2.658577	14.935000	87.694908
3.658577	14.935000	23.096214
4.658577	14.935000	3.662745
5.658577	14.935000	10.570546
6.658577	14.935000	2.693706
7.658577	14.935000	11.029497
8.658577	14.935000	46.679871
9.658577	14.935000	84.488770
10.658577	14.935000	61.952053
11.658577	14.935000	46.159592
12.658577	14.935000	38.107800
13.658577	14.935000	1.754506
14.658577	14.935000	2.601676
15.658577	14.935000	3.894293
16.658577	14.935000	1.505810
17.658577	14.935000	2.868944
18.658577	14.935000	3.349323
19.658577	14.935000	2.273403
20.658577	14.935000	1.922892
21.658577	14.935000	4.913203
22.658577	14.935000	3.478949
23.658577	14.935000	3.941494
24.658577	14.935000	7.517204
-39.341423	15.935000	147.194901
-38.341423	15.935000	153.176651
-37.341423	15.935000	151.756683
-36.341423	15.935000	137.586136
-35.341423	15.935000	130.132004
-34.341423	15.935000	117.203064
-33.341423	15.935000	134.968872
-32.341423	15.935000	126.307472
-31.341423	15.935000	115.296150
-30.341423	15.935000	69.508720
-29.341423	15.935000	68.843948
-28.341423	15.935000	36.382580
-27.341423	15.935000	42.057438
-26.341423	15.935000	45.362606
-25.341423	15.935000	32.240200
-24.341423	15.935000	27.130901
-23.341423	15.935000	7.404376
-22.341423	15.935000	2.944472
-21.341423	15.935000	15.966428
-20.341423	15.935000	36.760410
-19.341423	15.935000	60.640308
-18.341423	15.935000	43.332443
-17.341423	15.935000	63.831673
-16.341423	15.935000	96.809944
-15.341423	15.935000	0.000000
-14.341423	15.935000	0.000000
-13.341423	15.935000	112.404823
-12.341423	15.935000	0.000000
-11.341423	15.935000	75.739555
-10.341423	15.935000	3.994659
-9.341423	15.935000	1.755685
-8.341423	15.935000	9.421598
-7.341423	15.935000	47.179356
-6.341423	15.935000	31.848696
-5.341423	15.935000	7.819446
-4.341423	15.935000	9.427905
-3.341423	15.935000	20.264292
-2.341423	15.935000	27.288132
-1.341423	15.935000	46.215492
-0.341423	15.935000	43.041737
0.658577	15.935000	39.257065
1.658577	15.935000	84.728806
2.658577	15.935000	86.346001
3.658577	15.935000	18.396479
4.658577	15.935000	2.818061
5.658577	15.935000	1.297908
6.658577	15.935000	2.545282
7.658577	15.935000	2.150186
8.658577	15.935000	5.432686
9.658577	15.935000	62.230408
10.658577	15.935000	46.081596
11.658577	15.935000	7.203836
12.658577	15.935000	23.486624
13.658577	15.935000	8.851349
14.658577	15.935000	2.268196
15.658577	15.935000	2.942712
16.658577	15.935000	2.600102
17.658577	15.935000	4.268438
18.658577	15.935000	6.167889
19.658577	15.935000	0.000000
20.658577	15.935000	1.980412
21.658577	15.935000	1.812185
22.658577	15.935000	1.259613
23.658577	15.935000	0.000000
24.658577	15.935000	2.471809
