#XList		#YList		#IList		
-39.341423	-21.065000	100.945007
-38.341423	-21.065000	99.035164
-37.341423	-21.065000	94.818626
-36.341423	-21.065000	93.684509
-35.341423	-21.065000	89.469368
-34.341423	-21.065000	98.321869
-33.341423	-21.065000	94.134743
-32.341423	-21.065000	95.787872
-31.341423	-21.065000	94.956131
-30.341423	-21.065000	98.669479
-29.341423	-21.065000	86.707840
-28.341423	-21.065000	76.221298
-27.341423	-21.065000	82.732231
-26.341423	-21.065000	75.731010
-25.341423	-21.065000	73.630852
-24.341423	-21.065000	76.229317
-23.341423	-21.065000	37.456036
-22.341423	-21.065000	72.750023
-21.341423	-21.065000	89.521172
-20.341423	-21.065000	90.245056
-19.341423	-21.065000	78.030167
-18.341423	-21.065000	69.144279
-17.341423	-21.065000	97.722527
-16.341423	-21.065000	98.606285
-15.341423	-21.065000	96.082840
-14.341423	-21.065000	92.947273
-13.341423	-21.065000	89.571335
-12.341423	-21.065000	94.291512
-11.341423	-21.065000	101.087250
-10.341423	-21.065000	3.356956
-9.341423	-21.065000	66.759453
-8.341423	-21.065000	99.077530
-7.341423	-21.065000	93.483276
-6.341423	-21.065000	91.077736
-5.341423	-21.065000	89.728027
-4.341423	-21.065000	95.343643
-3.341423	-21.065000	94.304977
-2.341423	-21.065000	100.400719
-1.341423	-21.065000	98.030434
-0.341423	-21.065000	91.691216
0.658577	-21.065000	85.069046
1.658577	-21.065000	89.364983
2.658577	-21.065000	83.333206
3.658577	-21.065000	86.530090
4.658577	-21.065000	92.376671
5.658577	-21.065000	100.930321
6.658577	-21.065000	65.437317
7.658577	-21.065000	3.894137
8.658577	-21.065000	44.537025
9.658577	-21.065000	54.595379
10.658577	-21.065000	55.900234
11.658577	-21.065000	82.960915
12.658577	-21.065000	92.368202
13.658577	-21.065000	74.839264
14.658577	-21.065000	87.543655
15.658577	-21.065000	101.037361
16.658577	-21.065000	103.918259
17.658577	-21.065000	101.446465
18.658577	-21.065000	90.884315
19.658577	-21.065000	95.081367
20.658577	-21.065000	86.907318
21.658577	-21.065000	96.466446
22.658577	-21.065000	90.907738
23.658577	-21.065000	2.949937
24.658577	-21.065000	92.925003
-39.341423	-20.065000	96.471085
-38.341423	-20.065000	98.008881
-37.341423	-20.065000	98.696976
-36.341423	-20.065000	91.578209
-35.341423	-20.065000	93.642288
-34.341423	-20.065000	92.394455
-33.341423	-20.065000	93.766815
-32.341423	-20.065000	96.922165
-31.341423	-20.065000	99.822426
-30.341423	-20.065000	96.656876
-29.341423	-20.065000	88.608940
-28.341423	-20.065000	74.227158
-27.341423	-20.065000	81.829277
-26.341423	-20.065000	80.121788
-25.341423	-20.065000	84.693947
-24.341423	-20.065000	74.165550
-23.341423	-20.065000	71.024597
-22.341423	-20.065000	88.303864
-21.341423	-20.065000	90.730179
-20.341423	-20.065000	88.242760
-19.341423	-20.065000	74.992104
-18.341423	-20.065000	73.300568
-17.341423	-20.065000	95.308022
-16.341423	-20.065000	98.766968
-15.341423	-20.065000	97.966599
-14.341423	-20.065000	95.788506
-13.341423	-20.065000	93.444962
-12.341423	-20.065000	96.512215
-11.341423	-20.065000	99.826279
-10.341423	-20.065000	98.887321
-9.341423	-20.065000	94.477837
-8.341423	-20.065000	93.561188
-7.341423	-20.065000	89.671745
-6.341423	-20.065000	90.510506
-5.341423	-20.065000	85.021606
-4.341423	-20.065000	88.797043
-3.341423	-20.065000	100.323471
-2.341423	-20.065000	103.907539
-1.341423	-20.065000	101.978333
-0.341423	-20.065000	97.056824
0.658577	-20.065000	86.491318
1.658577	-20.065000	89.464821
2.658577	-20.065000	91.705421
3.658577	-20.065000	91.606133
4.658577	-20.065000	90.812202
5.658577	-20.065000	98.672150
6.658577	-20.065000	188.771927
7.658577	-20.065000	0.639823
8.658577	-20.065000	57.203171
9.658577	-20.065000	82.012283
10.658577	-20.065000	72.622169
11.658577	-20.065000	75.888298
12.658577	-20.065000	89.696541
13.658577	-20.065000	73.975288
14.658577	-20.065000	83.274910
15.658577	-20.065000	103.499268
16.658577	-20.065000	102.602730
17.658577	-20.065000	89.353012
18.658577	-20.065000	87.865837
19.658577	-20.065000	97.193901
20.658577	-20.065000	94.709122
21.658577	-20.065000	96.189713
22.658577	-20.065000	71.240067
23.658577	-20.065000	1.112661
24.658577	-20.065000	289.954254
-39.341423	-19.065000	107.895393
-38.341423	-19.065000	97.325989
-37.341423	-19.065000	92.224396
-36.341423	-19.065000	100.301971
-35.341423	-19.065000	91.301888
-34.341423	-19.065000	110.715027
-33.341423	-19.065000	90.897614
-32.341423	-19.065000	93.734337
-31.341423	-19.065000	98.992699
-30.341423	-19.065000	95.883904
-29.341423	-19.065000	85.993950
-28.341423	-19.065000	78.175056
-27.341423	-19.065000	85.147491
-26.341423	-19.065000	83.361885
-25.341423	-19.065000	85.024727
-24.341423	-19.065000	81.320862
-23.341423	-19.065000	83.175171
-22.341423	-19.065000	88.450943
-21.341423	-19.065000	85.933685
-20.341423	-19.065000	87.583794
-19.341423	-19.065000	93.094643
-18.341423	-19.065000	79.607971
-17.341423	-19.065000	96.289742
-16.341423	-19.065000	99.033562
-15.341423	-19.065000	97.685127
-14.341423	-19.065000	94.177742
-13.341423	-19.065000	91.118607
-12.341423	-19.065000	93.845940
-11.341423	-19.065000	97.073006
-10.341423	-19.065000	93.094215
-9.341423	-19.065000	97.435585
-8.341423	-19.065000	94.251251
-7.341423	-19.065000	85.843903
-6.341423	-19.065000	90.773232
-5.341423	-19.065000	91.493179
-4.341423	-19.065000	88.596443
-3.341423	-19.065000	88.788017
-2.341423	-19.065000	89.008934
-1.341423	-19.065000	97.729073
-0.341423	-19.065000	91.379845
0.658577	-19.065000	92.301956
1.658577	-19.065000	92.611099
2.658577	-19.065000	87.397972
3.658577	-19.065000	87.148346
4.658577	-19.065000	95.679306
5.658577	-19.065000	111.711678
6.658577	-19.065000	99.661880
7.658577	-19.065000	96.656746
8.658577	-19.065000	101.229965
9.658577	-19.065000	88.032326
10.658577	-19.065000	72.200981
11.658577	-19.065000	90.072350
12.658577	-19.065000	90.406616
13.658577	-19.065000	84.691658
14.658577	-19.065000	91.599480
15.658577	-19.065000	98.733688
16.658577	-19.065000	94.618568
17.658577	-19.065000	98.155205
18.658577	-19.065000	89.947266
19.658577	-19.065000	93.581200
20.658577	-19.065000	101.364548
21.658577	-19.065000	98.841156
22.658577	-19.065000	99.344704
23.658577	-19.065000	69.920357
24.658577	-19.065000	89.396385
-39.341423	-18.065000	105.305206
-38.341423	-18.065000	90.432861
-37.341423	-18.065000	95.997345
-36.341423	-18.065000	103.160561
-35.341423	-18.065000	97.595757
-34.341423	-18.065000	76.316742
-33.341423	-18.065000	94.904137
-32.341423	-18.065000	96.076126
-31.341423	-18.065000	94.682114
-30.341423	-18.065000	94.447685
-29.341423	-18.065000	81.979057
-28.341423	-18.065000	81.451965
-27.341423	-18.065000	82.979477
-26.341423	-18.065000	85.345222
-25.341423	-18.065000	79.492065
-24.341423	-18.065000	82.796928
-23.341423	-18.065000	81.531937
-22.341423	-18.065000	83.463524
-21.341423	-18.065000	87.253197
-20.341423	-18.065000	88.177155
-19.341423	-18.065000	86.569054
-18.341423	-18.065000	81.797012
-17.341423	-18.065000	94.153214
-16.341423	-18.065000	95.941093
-15.341423	-18.065000	97.780144
-14.341423	-18.065000	99.066750
-13.341423	-18.065000	96.096733
-12.341423	-18.065000	97.989326
-11.341423	-18.065000	94.700729
-10.341423	-18.065000	86.305443
-9.341423	-18.065000	91.346893
-8.341423	-18.065000	93.353836
-7.341423	-18.065000	90.864059
-6.341423	-18.065000	95.084068
-5.341423	-18.065000	98.409264
-4.341423	-18.065000	90.086411
-3.341423	-18.065000	86.104065
-2.341423	-18.065000	85.777618
-1.341423	-18.065000	90.647179
-0.341423	-18.065000	89.617065
0.658577	-18.065000	93.700226
1.658577	-18.065000	91.253838
2.658577	-18.065000	91.853912
3.658577	-18.065000	90.908638
4.658577	-18.065000	83.995255
5.658577	-18.065000	94.746490
6.658577	-18.065000	96.451462
7.658577	-18.065000	97.891548
8.658577	-18.065000	102.611275
9.658577	-18.065000	95.684769
10.658577	-18.065000	102.730476
11.658577	-18.065000	100.437286
12.658577	-18.065000	99.843636
13.658577	-18.065000	97.181915
14.658577	-18.065000	97.107773
15.658577	-18.065000	97.222382
16.658577	-18.065000	96.805290
17.658577	-18.065000	94.749161
18.658577	-18.065000	99.346107
19.658577	-18.065000	101.272469
20.658577	-18.065000	109.139168
21.658577	-18.065000	97.313591
22.658577	-18.065000	102.113060
23.658577	-18.065000	98.885193
24.658577	-18.065000	102.220459
-39.341423	-17.065000	99.088097
-38.341423	-17.065000	101.418472
-37.341423	-17.065000	98.912682
-36.341423	-17.065000	99.050201
-35.341423	-17.065000	93.030708
-34.341423	-17.065000	91.791962
-33.341423	-17.065000	84.768219
-32.341423	-17.065000	70.404144
-31.341423	-17.065000	77.383690
-30.341423	-17.065000	78.985039
-29.341423	-17.065000	81.671356
-28.341423	-17.065000	80.148682
-27.341423	-17.065000	79.122070
-26.341423	-17.065000	82.654716
-25.341423	-17.065000	83.112595
-24.341423	-17.065000	84.487640
-23.341423	-17.065000	87.081627
-22.341423	-17.065000	82.082977
-21.341423	-17.065000	94.749954
-20.341423	-17.065000	89.873940
-19.341423	-17.065000	80.990898
-18.341423	-17.065000	92.524559
-17.341423	-17.065000	93.399483
-16.341423	-17.065000	96.394188
-15.341423	-17.065000	98.295311
-14.341423	-17.065000	97.760307
-13.341423	-17.065000	94.788811
-12.341423	-17.065000	99.775490
-11.341423	-17.065000	98.186974
-10.341423	-17.065000	96.321289
-9.341423	-17.065000	91.913063
-8.341423	-17.065000	94.875626
-7.341423	-17.065000	92.524208
-6.341423	-17.065000	97.599022
-5.341423	-17.065000	97.747841
-4.341423	-17.065000	93.181213
-3.341423	-17.065000	85.303719
-2.341423	-17.065000	95.034134
-1.341423	-17.065000	95.687935
-0.341423	-17.065000	96.169327
0.658577	-17.065000	93.791801
1.658577	-17.065000	94.912315
2.658577	-17.065000	95.540855
3.658577	-17.065000	98.935699
4.658577	-17.065000	90.510048
5.658577	-17.065000	89.180138
6.658577	-17.065000	97.167030
7.658577	-17.065000	100.124496
8.658577	-17.065000	97.366493
9.658577	-17.065000	95.459534
10.658577	-17.065000	94.054733
11.658577	-17.065000	95.588844
12.658577	-17.065000	99.865883
13.658577	-17.065000	98.905922
14.658577	-17.065000	98.489311
15.658577	-17.065000	97.690666
16.658577	-17.065000	102.395729
17.658577	-17.065000	104.366173
18.658577	-17.065000	84.659424
19.658577	-17.065000	100.909683
20.658577	-17.065000	103.971245
21.658577	-17.065000	97.262787
22.658577	-17.065000	97.459000
23.658577	-17.065000	96.497078
24.658577	-17.065000	99.993896
-39.341423	-16.065000	100.044937
-38.341423	-16.065000	94.119148
-37.341423	-16.065000	99.933853
-36.341423	-16.065000	87.403328
-35.341423	-16.065000	91.730293
-34.341423	-16.065000	89.569473
-33.341423	-16.065000	92.090858
-32.341423	-16.065000	96.185753
-31.341423	-16.065000	88.606544
-30.341423	-16.065000	81.086861
-29.341423	-16.065000	83.907333
-28.341423	-16.065000	83.717537
-27.341423	-16.065000	79.174004
-26.341423	-16.065000	84.615540
-25.341423	-16.065000	85.035446
-24.341423	-16.065000	85.753166
-23.341423	-16.065000	84.516159
-22.341423	-16.065000	87.301102
-21.341423	-16.065000	94.659134
-20.341423	-16.065000	101.653877
-19.341423	-16.065000	100.002022
-18.341423	-16.065000	101.743408
-17.341423	-16.065000	95.771210
-16.341423	-16.065000	96.996330
-15.341423	-16.065000	97.963181
-14.341423	-16.065000	99.832977
-13.341423	-16.065000	99.060715
-12.341423	-16.065000	97.449387
-11.341423	-16.065000	99.624939
-10.341423	-16.065000	89.676628
-9.341423	-16.065000	93.357544
-8.341423	-16.065000	78.886253
-7.341423	-16.065000	71.876358
-6.341423	-16.065000	98.262009
-5.341423	-16.065000	98.892006
-4.341423	-16.065000	97.520073
-3.341423	-16.065000	96.361252
-2.341423	-16.065000	95.788094
-1.341423	-16.065000	98.476143
-0.341423	-16.065000	99.933273
0.658577	-16.065000	99.061302
1.658577	-16.065000	99.500587
2.658577	-16.065000	94.477242
3.658577	-16.065000	98.022797
4.658577	-16.065000	105.051613
5.658577	-16.065000	96.415894
6.658577	-16.065000	94.180580
7.658577	-16.065000	99.463654
8.658577	-16.065000	94.979919
9.658577	-16.065000	98.128914
10.658577	-16.065000	93.882393
11.658577	-16.065000	97.694016
12.658577	-16.065000	102.644730
13.658577	-16.065000	103.448662
14.658577	-16.065000	97.167618
15.658577	-16.065000	98.982483
16.658577	-16.065000	96.208214
17.658577	-16.065000	101.434929
18.658577	-16.065000	103.102142
19.658577	-16.065000	101.247307
20.658577	-16.065000	101.936684
21.658577	-16.065000	96.771744
22.658577	-16.065000	96.042526
23.658577	-16.065000	94.627975
24.658577	-16.065000	99.876053
-39.341423	-15.065000	94.400887
-38.341423	-15.065000	100.550140
-37.341423	-15.065000	88.043549
-36.341423	-15.065000	91.937935
-35.341423	-15.065000	94.893196
-34.341423	-15.065000	102.868256
-33.341423	-15.065000	100.938911
-32.341423	-15.065000	98.031830
-31.341423	-15.065000	91.847763
-30.341423	-15.065000	84.745155
-29.341423	-15.065000	80.663635
-28.341423	-15.065000	92.795647
-27.341423	-15.065000	87.973442
-26.341423	-15.065000	83.969810
-25.341423	-15.065000	84.272766
-24.341423	-15.065000	81.902832
-23.341423	-15.065000	79.742668
-22.341423	-15.065000	76.601799
-21.341423	-15.065000	87.459984
-20.341423	-15.065000	101.129211
-19.341423	-15.065000	98.979439
-18.341423	-15.065000	100.172073
-17.341423	-15.065000	97.719360
-16.341423	-15.065000	98.640343
-15.341423	-15.065000	97.085197
-14.341423	-15.065000	100.447586
-13.341423	-15.065000	99.158081
-12.341423	-15.065000	98.330788
-11.341423	-15.065000	92.275124
-10.341423	-15.065000	87.170601
-9.341423	-15.065000	80.813713
-8.341423	-15.065000	77.760597
-7.341423	-15.065000	80.723083
-6.341423	-15.065000	87.055717
-5.341423	-15.065000	91.462830
-4.341423	-15.065000	98.881790
-3.341423	-15.065000	97.022537
-2.341423	-15.065000	96.080048
-1.341423	-15.065000	91.618584
-0.341423	-15.065000	94.541138
0.658577	-15.065000	94.638626
1.658577	-15.065000	92.351486
2.658577	-15.065000	95.295952
3.658577	-15.065000	95.915237
4.658577	-15.065000	101.873566
5.658577	-15.065000	97.222031
6.658577	-15.065000	97.683525
7.658577	-15.065000	97.590271
8.658577	-15.065000	100.057808
9.658577	-15.065000	96.187134
10.658577	-15.065000	95.430847
11.658577	-15.065000	96.822807
12.658577	-15.065000	100.075294
13.658577	-15.065000	106.478943
14.658577	-15.065000	98.245186
15.658577	-15.065000	103.281799
16.658577	-15.065000	87.522316
17.658577	-15.065000	95.650414
18.658577	-15.065000	104.290649
19.658577	-15.065000	103.743927
20.658577	-15.065000	97.035965
21.658577	-15.065000	94.794685
22.658577	-15.065000	95.531258
23.658577	-15.065000	97.387451
24.658577	-15.065000	105.508369
-39.341423	-14.065000	92.315498
-38.341423	-14.065000	90.935310
-37.341423	-14.065000	95.781059
-36.341423	-14.065000	97.145943
-35.341423	-14.065000	95.482468
-34.341423	-14.065000	96.873787
-33.341423	-14.065000	98.226425
-32.341423	-14.065000	99.099434
-31.341423	-14.065000	96.025810
-30.341423	-14.065000	90.038391
-29.341423	-14.065000	88.072617
-28.341423	-14.065000	87.782829
-27.341423	-14.065000	88.863045
-26.341423	-14.065000	89.388504
-25.341423	-14.065000	83.587212
-24.341423	-14.065000	77.890129
-23.341423	-14.065000	84.191711
-22.341423	-14.065000	79.967667
-21.341423	-14.065000	89.472191
-20.341423	-14.065000	95.602791
-19.341423	-14.065000	99.644180
-18.341423	-14.065000	98.661316
-17.341423	-14.065000	99.973404
-16.341423	-14.065000	97.216614
-15.341423	-14.065000	99.323967
-14.341423	-14.065000	98.972664
-13.341423	-14.065000	96.566910
-12.341423	-14.065000	100.571663
-11.341423	-14.065000	85.256485
-10.341423	-14.065000	81.383835
-9.341423	-14.065000	84.735451
-8.341423	-14.065000	78.261681
-7.341423	-14.065000	77.795174
-6.341423	-14.065000	81.143066
-5.341423	-14.065000	83.170753
-4.341423	-14.065000	85.351974
-3.341423	-14.065000	89.686424
-2.341423	-14.065000	91.415817
-1.341423	-14.065000	90.706947
-0.341423	-14.065000	93.609840
0.658577	-14.065000	96.096382
1.658577	-14.065000	100.511200
2.658577	-14.065000	99.903481
3.658577	-14.065000	98.833466
4.658577	-14.065000	98.952576
5.658577	-14.065000	99.008965
6.658577	-14.065000	102.978630
7.658577	-14.065000	98.429771
8.658577	-14.065000	95.038437
9.658577	-14.065000	98.393509
10.658577	-14.065000	99.907211
11.658577	-14.065000	120.283165
12.658577	-14.065000	107.728363
13.658577	-14.065000	96.976509
14.658577	-14.065000	90.510780
15.658577	-14.065000	92.389259
16.658577	-14.065000	75.486259
17.658577	-14.065000	103.640762
18.658577	-14.065000	98.822769
19.658577	-14.065000	99.115295
20.658577	-14.065000	98.244598
21.658577	-14.065000	91.710899
22.658577	-14.065000	100.899147
23.658577	-14.065000	92.709511
24.658577	-14.065000	94.733353
-39.341423	-13.065000	89.047325
-38.341423	-13.065000	97.139572
-37.341423	-13.065000	98.453262
-36.341423	-13.065000	98.544357
-35.341423	-13.065000	97.933998
-34.341423	-13.065000	96.512344
-33.341423	-13.065000	96.795258
-32.341423	-13.065000	95.872772
-31.341423	-13.065000	95.517365
-30.341423	-13.065000	95.389755
-29.341423	-13.065000	94.100098
-28.341423	-13.065000	84.930862
-27.341423	-13.065000	87.848282
-26.341423	-13.065000	84.112358
-25.341423	-13.065000	81.523483
-24.341423	-13.065000	80.558647
-23.341423	-13.065000	85.289566
-22.341423	-13.065000	82.735123
-21.341423	-13.065000	92.061218
-20.341423	-13.065000	102.387993
-19.341423	-13.065000	91.251694
-18.341423	-13.065000	93.176247
-17.341423	-13.065000	91.952179
-16.341423	-13.065000	89.081108
-15.341423	-13.065000	101.422661
-14.341423	-13.065000	106.135422
-13.341423	-13.065000	91.594261
-12.341423	-13.065000	86.179146
-11.341423	-13.065000	81.716705
-10.341423	-13.065000	81.731476
-9.341423	-13.065000	84.347206
-8.341423	-13.065000	82.076874
-7.341423	-13.065000	88.073509
-6.341423	-13.065000	89.976738
-5.341423	-13.065000	86.799019
-4.341423	-13.065000	86.496483
-3.341423	-13.065000	85.427116
-2.341423	-13.065000	95.118973
-1.341423	-13.065000	96.564827
-0.341423	-13.065000	99.042122
0.658577	-13.065000	97.396927
1.658577	-13.065000	95.679337
2.658577	-13.065000	90.635216
3.658577	-13.065000	93.201591
4.658577	-13.065000	96.849220
5.658577	-13.065000	97.592751
6.658577	-13.065000	98.366486
7.658577	-13.065000	101.589485
8.658577	-13.065000	104.211952
9.658577	-13.065000	99.660385
10.658577	-13.065000	108.513664
11.658577	-13.065000	102.276543
12.658577	-13.065000	92.290993
13.658577	-13.065000	92.761047
14.658577	-13.065000	95.468987
15.658577	-13.065000	83.499001
16.658577	-13.065000	96.532997
17.658577	-13.065000	98.120613
18.658577	-13.065000	104.053841
19.658577	-13.065000	102.837929
20.658577	-13.065000	99.828743
21.658577	-13.065000	95.441429
22.658577	-13.065000	99.993378
23.658577	-13.065000	98.638977
24.658577	-13.065000	96.358315
-39.341423	-12.065000	94.758705
-38.341423	-12.065000	96.963203
-37.341423	-12.065000	99.529648
-36.341423	-12.065000	97.771530
-35.341423	-12.065000	96.996338
-34.341423	-12.065000	98.358582
-33.341423	-12.065000	97.764297
-32.341423	-12.065000	94.977844
-31.341423	-12.065000	94.698990
-30.341423	-12.065000	95.764481
-29.341423	-12.065000	96.115646
-28.341423	-12.065000	90.491219
-27.341423	-12.065000	84.539314
-26.341423	-12.065000	83.634506
-25.341423	-12.065000	79.230820
-24.341423	-12.065000	78.291298
-23.341423	-12.065000	83.892921
-22.341423	-12.065000	84.155968
-21.341423	-12.065000	89.882912
-20.341423	-12.065000	105.055748
-19.341423	-12.065000	97.804192
-18.341423	-12.065000	89.408524
-17.341423	-12.065000	100.217613
-16.341423	-12.065000	94.517822
-15.341423	-12.065000	90.186615
-14.341423	-12.065000	99.541786
-13.341423	-12.065000	84.616249
-12.341423	-12.065000	82.922272
-11.341423	-12.065000	74.507240
-10.341423	-12.065000	78.722137
-9.341423	-12.065000	79.300186
-8.341423	-12.065000	84.942436
-7.341423	-12.065000	97.091530
-6.341423	-12.065000	98.340813
-5.341423	-12.065000	98.356903
-4.341423	-12.065000	83.463570
-3.341423	-12.065000	93.097343
-2.341423	-12.065000	102.350609
-1.341423	-12.065000	97.067322
-0.341423	-12.065000	99.036079
0.658577	-12.065000	95.193314
1.658577	-12.065000	94.059746
2.658577	-12.065000	96.874519
3.658577	-12.065000	96.457115
4.658577	-12.065000	104.120995
5.658577	-12.065000	96.678383
6.658577	-12.065000	93.124931
7.658577	-12.065000	99.510002
8.658577	-12.065000	93.209053
9.658577	-12.065000	103.569572
10.658577	-12.065000	75.516609
11.658577	-12.065000	71.434044
12.658577	-12.065000	90.988281
13.658577	-12.065000	84.109993
14.658577	-12.065000	83.384026
15.658577	-12.065000	81.064682
16.658577	-12.065000	87.729614
17.658577	-12.065000	97.503654
18.658577	-12.065000	93.267281
19.658577	-12.065000	96.400719
20.658577	-12.065000	98.481117
21.658577	-12.065000	99.371140
22.658577	-12.065000	98.441589
23.658577	-12.065000	102.508133
24.658577	-12.065000	99.019104
-39.341423	-11.065000	97.797615
-38.341423	-11.065000	96.204628
-37.341423	-11.065000	97.703461
-36.341423	-11.065000	96.289658
-35.341423	-11.065000	99.063370
-34.341423	-11.065000	96.140938
-33.341423	-11.065000	96.475266
-32.341423	-11.065000	96.489494
-31.341423	-11.065000	96.014992
-30.341423	-11.065000	95.668755
-29.341423	-11.065000	95.635216
-28.341423	-11.065000	96.028191
-27.341423	-11.065000	96.583107
-26.341423	-11.065000	99.485298
-25.341423	-11.065000	92.853760
-24.341423	-11.065000	80.166855
-23.341423	-11.065000	83.686882
-22.341423	-11.065000	83.645630
-21.341423	-11.065000	97.388344
-20.341423	-11.065000	101.631546
-19.341423	-11.065000	98.912117
-18.341423	-11.065000	85.164391
-17.341423	-11.065000	90.167503
-16.341423	-11.065000	91.793579
-15.341423	-11.065000	97.162834
-14.341423	-11.065000	95.956726
-13.341423	-11.065000	87.558838
-12.341423	-11.065000	83.567619
-11.341423	-11.065000	77.051582
-10.341423	-11.065000	76.648842
-9.341423	-11.065000	79.416687
-8.341423	-11.065000	93.725769
-7.341423	-11.065000	103.214081
-6.341423	-11.065000	100.950256
-5.341423	-11.065000	90.604294
-4.341423	-11.065000	91.035553
-3.341423	-11.065000	95.298157
-2.341423	-11.065000	99.026947
-1.341423	-11.065000	100.220238
-0.341423	-11.065000	96.235199
0.658577	-11.065000	94.458183
1.658577	-11.065000	94.148758
2.658577	-11.065000	97.571518
3.658577	-11.065000	107.986649
4.658577	-11.065000	123.633453
5.658577	-11.065000	100.191238
6.658577	-11.065000	95.876709
7.658577	-11.065000	96.951286
8.658577	-11.065000	95.901642
9.658577	-11.065000	96.250237
10.658577	-11.065000	0.639823
11.658577	-11.065000	69.729546
12.658577	-11.065000	116.092865
13.658577	-11.065000	94.363617
14.658577	-11.065000	84.281715
15.658577	-11.065000	86.263634
16.658577	-11.065000	92.253860
17.658577	-11.065000	94.525085
18.658577	-11.065000	92.563049
19.658577	-11.065000	106.946701
20.658577	-11.065000	103.355156
21.658577	-11.065000	92.276497
22.658577	-11.065000	89.960426
23.658577	-11.065000	99.136520
24.658577	-11.065000	100.651016
-39.341423	-10.065000	93.416428
-38.341423	-10.065000	97.117615
-37.341423	-10.065000	94.532234
-36.341423	-10.065000	96.479324
-35.341423	-10.065000	97.383049
-34.341423	-10.065000	99.778320
-33.341423	-10.065000	97.951225
-32.341423	-10.065000	98.325676
-31.341423	-10.065000	95.198280
-30.341423	-10.065000	97.300621
-29.341423	-10.065000	95.737450
-28.341423	-10.065000	95.252777
-27.341423	-10.065000	94.524353
-26.341423	-10.065000	99.147591
-25.341423	-10.065000	96.089272
-24.341423	-10.065000	96.228722
-23.341423	-10.065000	82.196060
-22.341423	-10.065000	87.319443
-21.341423	-10.065000	106.876305
-20.341423	-10.065000	100.950157
-19.341423	-10.065000	96.534370
-18.341423	-10.065000	87.241707
-17.341423	-10.065000	93.719009
-16.341423	-10.065000	92.555290
-15.341423	-10.065000	98.356384
-14.341423	-10.065000	94.562874
-13.341423	-10.065000	86.637306
-12.341423	-10.065000	90.802612
-11.341423	-10.065000	89.426094
-10.341423	-10.065000	97.791618
-9.341423	-10.065000	84.174026
-8.341423	-10.065000	82.307159
-7.341423	-10.065000	96.212189
-6.341423	-10.065000	94.675789
-5.341423	-10.065000	79.161400
-4.341423	-10.065000	91.515320
-3.341423	-10.065000	85.020897
-2.341423	-10.065000	99.944328
-1.341423	-10.065000	95.453011
-0.341423	-10.065000	94.812401
0.658577	-10.065000	93.499725
1.658577	-10.065000	98.247948
2.658577	-10.065000	89.822327
3.658577	-10.065000	102.355743
4.658577	-10.065000	112.823906
5.658577	-10.065000	98.456268
6.658577	-10.065000	85.780876
7.658577	-10.065000	93.535042
8.658577	-10.065000	108.990608
9.658577	-10.065000	67.000870
10.658577	-10.065000	0.639823
11.658577	-10.065000	25.575537
12.658577	-10.065000	102.687447
13.658577	-10.065000	105.121620
14.658577	-10.065000	107.503822
15.658577	-10.065000	100.823631
16.658577	-10.065000	96.469833
17.658577	-10.065000	99.809578
18.658577	-10.065000	106.109398
19.658577	-10.065000	95.881187
20.658577	-10.065000	105.091591
21.658577	-10.065000	104.092735
22.658577	-10.065000	94.286682
23.658577	-10.065000	99.063469
24.658577	-10.065000	90.085869
-39.341423	-9.065000	99.228737
-38.341423	-9.065000	95.929062
-37.341423	-9.065000	96.566551
-36.341423	-9.065000	93.997955
-35.341423	-9.065000	94.482445
-34.341423	-9.065000	98.522858
-33.341423	-9.065000	99.809944
-32.341423	-9.065000	99.060318
-31.341423	-9.065000	96.106453
-30.341423	-9.065000	96.202271
-29.341423	-9.065000	96.688622
-28.341423	-9.065000	97.029518
-27.341423	-9.065000	95.047356
-26.341423	-9.065000	99.517403
-25.341423	-9.065000	95.925247
-24.341423	-9.065000	97.171234
-23.341423	-9.065000	86.675156
-22.341423	-9.065000	69.488228
-21.341423	-9.065000	87.358978
-20.341423	-9.065000	105.151443
-19.341423	-9.065000	95.748085
-18.341423	-9.065000	91.352081
-17.341423	-9.065000	89.766151
-16.341423	-9.065000	92.112137
-15.341423	-9.065000	97.694359
-14.341423	-9.065000	95.245834
-13.341423	-9.065000	89.480354
-12.341423	-9.065000	96.201874
-11.341423	-9.065000	100.595589
-10.341423	-9.065000	98.933067
-9.341423	-9.065000	96.611359
-8.341423	-9.065000	91.291649
-7.341423	-9.065000	85.477585
-6.341423	-9.065000	86.544960
-5.341423	-9.065000	99.255798
-4.341423	-9.065000	109.404900
-3.341423	-9.065000	94.967232
-2.341423	-9.065000	96.537079
-1.341423	-9.065000	93.145950
-0.341423	-9.065000	96.878586
0.658577	-9.065000	95.239746
1.658577	-9.065000	94.739037
2.658577	-9.065000	72.566376
3.658577	-9.065000	73.840439
4.658577	-9.065000	90.936638
5.658577	-9.065000	90.588814
6.658577	-9.065000	86.068459
7.658577	-9.065000	85.987167
8.658577	-9.065000	93.336288
9.658577	-9.065000	1.723536
10.658577	-9.065000	0.639823
11.658577	-9.065000	133.940842
12.658577	-9.065000	102.992935
13.658577	-9.065000	96.780296
14.658577	-9.065000	94.196564
15.658577	-9.065000	97.083412
16.658577	-9.065000	99.875771
17.658577	-9.065000	105.579742
18.658577	-9.065000	92.283142
19.658577	-9.065000	95.903717
20.658577	-9.065000	96.117287
21.658577	-9.065000	99.772682
22.658577	-9.065000	104.901985
23.658577	-9.065000	95.824150
24.658577	-9.065000	106.449501
-39.341423	-8.065000	95.528229
-38.341423	-8.065000	94.652718
-37.341423	-8.065000	95.975174
-36.341423	-8.065000	98.699875
-35.341423	-8.065000	95.151375
-34.341423	-8.065000	96.694672
-33.341423	-8.065000	97.910507
-32.341423	-8.065000	99.418854
-31.341423	-8.065000	97.804123
-30.341423	-8.065000	98.095161
-29.341423	-8.065000	95.045761
-28.341423	-8.065000	95.545364
-27.341423	-8.065000	97.156555
-26.341423	-8.065000	101.211967
-25.341423	-8.065000	101.164894
-24.341423	-8.065000	103.682434
-23.341423	-8.065000	90.348091
-22.341423	-8.065000	118.767464
-21.341423	-8.065000	111.191750
-20.341423	-8.065000	103.964523
-19.341423	-8.065000	99.418182
-18.341423	-8.065000	97.134995
-17.341423	-8.065000	92.633522
-16.341423	-8.065000	94.724380
-15.341423	-8.065000	98.676254
-14.341423	-8.065000	90.521744
-13.341423	-8.065000	94.109200
-12.341423	-8.065000	93.661201
-11.341423	-8.065000	97.771049
-10.341423	-8.065000	96.879662
-9.341423	-8.065000	100.254913
-8.341423	-8.065000	88.371216
-7.341423	-8.065000	80.376144
-6.341423	-8.065000	73.314384
-5.341423	-8.065000	76.801590
-4.341423	-8.065000	94.679695
-3.341423	-8.065000	97.654770
-2.341423	-8.065000	96.765923
-1.341423	-8.065000	91.106392
-0.341423	-8.065000	91.145775
0.658577	-8.065000	98.993591
1.658577	-8.065000	97.336548
2.658577	-8.065000	101.178680
3.658577	-8.065000	95.881348
4.658577	-8.065000	93.820816
5.658577	-8.065000	86.596657
6.658577	-8.065000	88.106300
7.658577	-8.065000	91.214890
8.658577	-8.065000	76.768921
9.658577	-8.065000	19.735916
10.658577	-8.065000	91.615227
11.658577	-8.065000	43.526974
12.658577	-8.065000	100.226685
13.658577	-8.065000	106.509148
14.658577	-8.065000	99.586403
15.658577	-8.065000	98.300278
16.658577	-8.065000	101.774208
17.658577	-8.065000	104.105179
18.658577	-8.065000	88.001816
19.658577	-8.065000	96.474098
20.658577	-8.065000	112.113792
21.658577	-8.065000	78.483070
22.658577	-8.065000	91.911102
23.658577	-8.065000	92.613823
24.658577	-8.065000	98.132652
-39.341423	-7.065000	94.749519
-38.341423	-7.065000	96.797012
-37.341423	-7.065000	99.155350
-36.341423	-7.065000	97.568329
-35.341423	-7.065000	96.012169
-34.341423	-7.065000	95.340195
-33.341423	-7.065000	98.289879
-32.341423	-7.065000	99.298241
-31.341423	-7.065000	96.343361
-30.341423	-7.065000	97.259720
-29.341423	-7.065000	95.688034
-28.341423	-7.065000	96.770081
-27.341423	-7.065000	96.256805
-26.341423	-7.065000	97.119942
-25.341423	-7.065000	99.382545
-24.341423	-7.065000	101.267944
-23.341423	-7.065000	91.123207
-22.341423	-7.065000	89.464211
-21.341423	-7.065000	102.356445
-20.341423	-7.065000	110.148300
-19.341423	-7.065000	101.409531
-18.341423	-7.065000	101.662560
-17.341423	-7.065000	98.705330
-16.341423	-7.065000	96.125015
-15.341423	-7.065000	93.983200
-14.341423	-7.065000	97.199135
-13.341423	-7.065000	88.341888
-12.341423	-7.065000	89.326942
-11.341423	-7.065000	92.732964
-10.341423	-7.065000	92.070763
-9.341423	-7.065000	100.191574
-8.341423	-7.065000	100.476768
-7.341423	-7.065000	93.851234
-6.341423	-7.065000	79.414879
-5.341423	-7.065000	87.626465
-4.341423	-7.065000	78.719742
-3.341423	-7.065000	93.747124
-2.341423	-7.065000	97.658119
-1.341423	-7.065000	77.447716
-0.341423	-7.065000	57.366749
0.658577	-7.065000	85.600815
1.658577	-7.065000	105.206558
2.658577	-7.065000	102.535988
3.658577	-7.065000	90.012283
4.658577	-7.065000	79.031792
5.658577	-7.065000	88.041824
6.658577	-7.065000	89.549370
7.658577	-7.065000	100.344566
8.658577	-7.065000	63.208771
9.658577	-7.065000	60.050301
10.658577	-7.065000	101.693405
11.658577	-7.065000	101.738426
12.658577	-7.065000	99.147247
13.658577	-7.065000	92.170883
14.658577	-7.065000	93.443024
15.658577	-7.065000	102.106544
16.658577	-7.065000	98.015030
17.658577	-7.065000	96.005791
18.658577	-7.065000	99.118835
19.658577	-7.065000	100.029503
20.658577	-7.065000	108.320335
21.658577	-7.065000	102.371750
22.658577	-7.065000	99.458969
23.658577	-7.065000	95.599686
24.658577	-7.065000	96.604271
-39.341423	-6.065000	96.196663
-38.341423	-6.065000	97.473534
-37.341423	-6.065000	97.073280
-36.341423	-6.065000	96.692093
-35.341423	-6.065000	97.845406
-34.341423	-6.065000	98.430183
-33.341423	-6.065000	99.811050
-32.341423	-6.065000	98.868195
-31.341423	-6.065000	97.611389
-30.341423	-6.065000	95.906616
-29.341423	-6.065000	96.578011
-28.341423	-6.065000	97.260307
-27.341423	-6.065000	98.630379
-26.341423	-6.065000	95.183975
-25.341423	-6.065000	96.110657
-24.341423	-6.065000	97.116875
-23.341423	-6.065000	98.427612
-22.341423	-6.065000	90.767105
-21.341423	-6.065000	91.839188
-20.341423	-6.065000	96.023285
-19.341423	-6.065000	99.200760
-18.341423	-6.065000	84.683327
-17.341423	-6.065000	95.303619
-16.341423	-6.065000	97.900276
-15.341423	-6.065000	101.153412
-14.341423	-6.065000	98.856087
-13.341423	-6.065000	93.954468
-12.341423	-6.065000	91.881699
-11.341423	-6.065000	95.126755
-10.341423	-6.065000	95.349472
-9.341423	-6.065000	98.198997
-8.341423	-6.065000	106.451385
-7.341423	-6.065000	102.158791
-6.341423	-6.065000	99.585617
-5.341423	-6.065000	101.039490
-4.341423	-6.065000	49.483730
-3.341423	-6.065000	112.791435
-2.341423	-6.065000	89.778870
-1.341423	-6.065000	84.617302
-0.341423	-6.065000	63.132725
0.658577	-6.065000	92.368912
1.658577	-6.065000	76.368996
2.658577	-6.065000	92.749969
3.658577	-6.065000	84.011650
4.658577	-6.065000	74.213463
5.658577	-6.065000	82.133476
6.658577	-6.065000	86.006607
7.658577	-6.065000	91.764435
8.658577	-6.065000	97.396004
9.658577	-6.065000	93.366737
10.658577	-6.065000	106.678223
11.658577	-6.065000	99.014603
12.658577	-6.065000	101.348587
13.658577	-6.065000	91.075325
14.658577	-6.065000	95.480965
15.658577	-6.065000	100.265800
16.658577	-6.065000	97.403526
17.658577	-6.065000	103.814735
18.658577	-6.065000	93.462296
19.658577	-6.065000	96.447113
20.658577	-6.065000	99.228027
21.658577	-6.065000	101.335274
22.658577	-6.065000	95.286324
23.658577	-6.065000	91.607338
24.658577	-6.065000	89.953735
-39.341423	-5.065000	90.441292
-38.341423	-5.065000	95.629578
-37.341423	-5.065000	95.027626
-36.341423	-5.065000	93.741699
-35.341423	-5.065000	94.546257
-34.341423	-5.065000	94.677666
-33.341423	-5.065000	97.889565
-32.341423	-5.065000	99.123932
-31.341423	-5.065000	98.060699
-30.341423	-5.065000	95.335602
-29.341423	-5.065000	96.803658
-28.341423	-5.065000	98.552811
-27.341423	-5.065000	100.968224
-26.341423	-5.065000	96.690331
-25.341423	-5.065000	94.858986
-24.341423	-5.065000	96.136909
-23.341423	-5.065000	98.955353
-22.341423	-5.065000	93.651443
-21.341423	-5.065000	95.206963
-20.341423	-5.065000	95.814705
-19.341423	-5.065000	85.638481
-18.341423	-5.065000	56.404018
-17.341423	-5.065000	112.929527
-16.341423	-5.065000	95.045616
-15.341423	-5.065000	97.734146
-14.341423	-5.065000	100.301331
-13.341423	-5.065000	99.768448
-12.341423	-5.065000	99.341049
-11.341423	-5.065000	102.238289
-10.341423	-5.065000	99.180817
-9.341423	-5.065000	100.615288
-8.341423	-5.065000	97.750458
-7.341423	-5.065000	99.953857
-6.341423	-5.065000	101.772011
-5.341423	-5.065000	102.299339
-4.341423	-5.065000	96.358955
-3.341423	-5.065000	28.827738
-2.341423	-5.065000	96.307976
-1.341423	-5.065000	101.089798
-0.341423	-5.065000	99.324829
0.658577	-5.065000	92.074814
1.658577	-5.065000	98.454987
2.658577	-5.065000	93.837181
3.658577	-5.065000	92.888390
4.658577	-5.065000	88.524117
5.658577	-5.065000	87.120438
6.658577	-5.065000	96.085777
7.658577	-5.065000	92.743279
8.658577	-5.065000	93.591034
9.658577	-5.065000	97.036667
10.658577	-5.065000	100.625099
11.658577	-5.065000	100.021271
12.658577	-5.065000	99.119736
13.658577	-5.065000	94.532333
14.658577	-5.065000	96.564789
15.658577	-5.065000	96.930634
16.658577	-5.065000	96.909119
17.658577	-5.065000	97.362465
18.658577	-5.065000	95.973755
19.658577	-5.065000	101.153969
20.658577	-5.065000	100.739723
21.658577	-5.065000	94.232780
22.658577	-5.065000	89.258133
23.658577	-5.065000	91.943031
24.658577	-5.065000	86.765358
-39.341423	-4.065000	43.652939
-38.341423	-4.065000	95.882591
-37.341423	-4.065000	91.771400
-36.341423	-4.065000	89.987617
-35.341423	-4.065000	97.079948
-34.341423	-4.065000	97.524162
-33.341423	-4.065000	97.716942
-32.341423	-4.065000	97.690239
-31.341423	-4.065000	94.959145
-30.341423	-4.065000	97.646904
-29.341423	-4.065000	98.544037
-28.341423	-4.065000	97.379265
-27.341423	-4.065000	99.342850
-26.341423	-4.065000	97.293419
-25.341423	-4.065000	98.063026
-24.341423	-4.065000	99.684364
-23.341423	-4.065000	94.959557
-22.341423	-4.065000	90.436440
-21.341423	-4.065000	87.030510
-20.341423	-4.065000	97.924904
-19.341423	-4.065000	104.298790
-18.341423	-4.065000	104.497314
-17.341423	-4.065000	102.976982
-16.341423	-4.065000	103.280449
-15.341423	-4.065000	98.489197
-14.341423	-4.065000	97.433228
-13.341423	-4.065000	102.365494
-12.341423	-4.065000	96.012939
-11.341423	-4.065000	101.794495
-10.341423	-4.065000	101.191978
-9.341423	-4.065000	98.311119
-8.341423	-4.065000	95.165291
-7.341423	-4.065000	100.994904
-6.341423	-4.065000	98.974586
-5.341423	-4.065000	100.215462
-4.341423	-4.065000	103.905708
-3.341423	-4.065000	42.600651
-2.341423	-4.065000	73.890381
-1.341423	-4.065000	95.040962
-0.341423	-4.065000	95.280846
0.658577	-4.065000	87.725082
1.658577	-4.065000	84.524948
2.658577	-4.065000	56.314304
3.658577	-4.065000	113.525482
4.658577	-4.065000	92.730118
5.658577	-4.065000	94.770355
6.658577	-4.065000	95.265297
7.658577	-4.065000	95.029022
8.658577	-4.065000	99.400612
9.658577	-4.065000	92.322845
10.658577	-4.065000	98.267891
11.658577	-4.065000	99.296295
12.658577	-4.065000	99.790306
13.658577	-4.065000	97.906929
14.658577	-4.065000	97.716721
15.658577	-4.065000	102.763329
16.658577	-4.065000	99.311424
17.658577	-4.065000	84.889671
18.658577	-4.065000	94.835487
19.658577	-4.065000	91.112511
20.658577	-4.065000	94.749596
21.658577	-4.065000	92.871010
22.658577	-4.065000	85.980568
23.658577	-4.065000	97.007744
24.658577	-4.065000	82.679901
-39.341423	-3.065000	0.639823
-38.341423	-3.065000	91.359009
-37.341423	-3.065000	89.977852
-36.341423	-3.065000	95.874046
-35.341423	-3.065000	95.825020
-34.341423	-3.065000	96.664314
-33.341423	-3.065000	96.075844
-32.341423	-3.065000	97.095505
-31.341423	-3.065000	104.098587
-30.341423	-3.065000	98.819313
-29.341423	-3.065000	97.980965
-28.341423	-3.065000	103.591789
-27.341423	-3.065000	97.276146
-26.341423	-3.065000	96.693527
-25.341423	-3.065000	96.307640
-24.341423	-3.065000	95.846405
-23.341423	-3.065000	95.132248
-22.341423	-3.065000	91.549881
-21.341423	-3.065000	86.383720
-20.341423	-3.065000	95.020203
-19.341423	-3.065000	96.977348
-18.341423	-3.065000	94.220047
-17.341423	-3.065000	103.069328
-16.341423	-3.065000	103.518517
-15.341423	-3.065000	102.859344
-14.341423	-3.065000	101.986351
-13.341423	-3.065000	98.350830
-12.341423	-3.065000	99.481781
-11.341423	-3.065000	94.139999
-10.341423	-3.065000	97.222054
-9.341423	-3.065000	98.181946
-8.341423	-3.065000	98.462006
-7.341423	-3.065000	96.274063
-6.341423	-3.065000	100.902061
-5.341423	-3.065000	100.251518
-4.341423	-3.065000	101.048691
-3.341423	-3.065000	90.626495
-2.341423	-3.065000	90.638016
-1.341423	-3.065000	95.506042
-0.341423	-3.065000	94.652763
0.658577	-3.065000	90.396873
1.658577	-3.065000	91.575401
2.658577	-3.065000	117.686111
3.658577	-3.065000	100.798332
4.658577	-3.065000	94.480659
5.658577	-3.065000	101.077209
6.658577	-3.065000	98.392685
7.658577	-3.065000	91.415260
8.658577	-3.065000	97.333282
9.658577	-3.065000	98.441574
10.658577	-3.065000	97.766167
11.658577	-3.065000	96.954384
12.658577	-3.065000	100.626968
13.658577	-3.065000	97.701363
14.658577	-3.065000	102.022736
15.658577	-3.065000	91.191177
16.658577	-3.065000	87.251709
17.658577	-3.065000	85.084961
18.658577	-3.065000	87.900848
19.658577	-3.065000	91.137917
20.658577	-3.065000	90.979065
21.658577	-3.065000	87.894608
22.658577	-3.065000	97.974953
23.658577	-3.065000	75.666061
24.658577	-3.065000	97.519745
-39.341423	-2.065000	99.195335
-38.341423	-2.065000	97.461121
-37.341423	-2.065000	98.478180
-36.341423	-2.065000	93.250877
-35.341423	-2.065000	95.937965
-34.341423	-2.065000	97.744873
-33.341423	-2.065000	94.091766
-32.341423	-2.065000	97.088615
-31.341423	-2.065000	92.940651
-30.341423	-2.065000	96.575745
-29.341423	-2.065000	97.362793
-28.341423	-2.065000	9.464334
-27.341423	-2.065000	101.114014
-26.341423	-2.065000	94.719276
-25.341423	-2.065000	96.590500
-24.341423	-2.065000	100.192719
-23.341423	-2.065000	98.540085
-22.341423	-2.065000	90.066376
-21.341423	-2.065000	87.388367
-20.341423	-2.065000	93.793053
-19.341423	-2.065000	98.529305
-18.341423	-2.065000	99.297127
-17.341423	-2.065000	99.270287
-16.341423	-2.065000	95.280655
-15.341423	-2.065000	102.481522
-14.341423	-2.065000	97.610115
-13.341423	-2.065000	93.568687
-12.341423	-2.065000	96.005699
-11.341423	-2.065000	99.804909
-10.341423	-2.065000	102.948807
-9.341423	-2.065000	99.570442
-8.341423	-2.065000	99.241722
-7.341423	-2.065000	99.080429
-6.341423	-2.065000	97.774841
-5.341423	-2.065000	99.397491
-4.341423	-2.065000	105.227402
-3.341423	-2.065000	94.703079
-2.341423	-2.065000	93.283768
-1.341423	-2.065000	97.208908
-0.341423	-2.065000	93.504250
0.658577	-2.065000	93.384270
1.658577	-2.065000	94.344559
2.658577	-2.065000	106.540222
3.658577	-2.065000	87.967125
4.658577	-2.065000	94.107925
5.658577	-2.065000	94.200516
6.658577	-2.065000	98.042137
7.658577	-2.065000	101.448006
8.658577	-2.065000	90.301926
9.658577	-2.065000	98.035072
10.658577	-2.065000	82.850082
11.658577	-2.065000	85.774437
12.658577	-2.065000	100.466789
13.658577	-2.065000	100.204414
14.658577	-2.065000	99.335777
15.658577	-2.065000	93.472710
16.658577	-2.065000	89.073410
17.658577	-2.065000	83.396507
18.658577	-2.065000	97.104141
19.658577	-2.065000	91.155495
20.658577	-2.065000	90.791504
21.658577	-2.065000	102.940292
22.658577	-2.065000	87.583260
23.658577	-2.065000	76.365395
24.658577	-2.065000	77.829094
-39.341423	-1.065000	82.701317
-38.341423	-1.065000	102.367813
-37.341423	-1.065000	102.733818
-36.341423	-1.065000	101.280106
-35.341423	-1.065000	102.234459
-34.341423	-1.065000	106.943520
-33.341423	-1.065000	103.008545
-32.341423	-1.065000	98.181992
-31.341423	-1.065000	97.221169
-30.341423	-1.065000	92.658112
-29.341423	-1.065000	89.452637
-28.341423	-1.065000	42.593658
-27.341423	-1.065000	88.972778
-26.341423	-1.065000	95.280670
-25.341423	-1.065000	94.927254
-24.341423	-1.065000	96.508621
-23.341423	-1.065000	103.077896
-22.341423	-1.065000	99.997604
-21.341423	-1.065000	98.981056
-20.341423	-1.065000	105.588799
-19.341423	-1.065000	94.842766
-18.341423	-1.065000	97.936676
-17.341423	-1.065000	106.047714
-16.341423	-1.065000	102.411568
-15.341423	-1.065000	100.513405
-14.341423	-1.065000	100.676987
-13.341423	-1.065000	98.086021
-12.341423	-1.065000	98.558708
-11.341423	-1.065000	101.564537
-10.341423	-1.065000	104.370186
-9.341423	-1.065000	100.555817
-8.341423	-1.065000	97.531410
-7.341423	-1.065000	92.550400
-6.341423	-1.065000	93.080223
-5.341423	-1.065000	97.479088
-4.341423	-1.065000	101.341354
-3.341423	-1.065000	102.212013
-2.341423	-1.065000	94.868668
-1.341423	-1.065000	91.086006
-0.341423	-1.065000	93.180618
0.658577	-1.065000	92.838821
1.658577	-1.065000	96.249626
2.658577	-1.065000	99.569229
3.658577	-1.065000	86.099075
4.658577	-1.065000	87.298996
5.658577	-1.065000	96.386772
6.658577	-1.065000	96.218002
7.658577	-1.065000	91.941757
8.658577	-1.065000	101.192245
9.658577	-1.065000	96.675758
10.658577	-1.065000	83.026604
11.658577	-1.065000	96.618385
12.658577	-1.065000	99.339058
13.658577	-1.065000	94.081879
14.658577	-1.065000	98.308945
15.658577	-1.065000	92.654388
16.658577	-1.065000	85.926727
17.658577	-1.065000	88.908455
18.658577	-1.065000	93.473076
19.658577	-1.065000	95.775726
20.658577	-1.065000	94.024513
21.658577	-1.065000	93.784447
22.658577	-1.065000	85.383720
23.658577	-1.065000	77.696785
24.658577	-1.065000	81.174355
-39.341423	-0.065000	69.895515
-38.341423	-0.065000	73.551552
-37.341423	-0.065000	96.822060
-36.341423	-0.065000	109.178146
-35.341423	-0.065000	113.576202
-34.341423	-0.065000	108.493164
-33.341423	-0.065000	101.795364
-32.341423	-0.065000	107.307137
-31.341423	-0.065000	99.766060
-30.341423	-0.065000	107.765778
-29.341423	-0.065000	102.383217
-28.341423	-0.065000	1.720088
-27.341423	-0.065000	14.182912
-26.341423	-0.065000	94.806175
-25.341423	-0.065000	97.904434
-24.341423	-0.065000	97.215111
-23.341423	-0.065000	99.845238
-22.341423	-0.065000	94.722565
-21.341423	-0.065000	94.044029
-20.341423	-0.065000	99.588303
-19.341423	-0.065000	95.353119
-18.341423	-0.065000	98.732971
-17.341423	-0.065000	102.386665
-16.341423	-0.065000	98.200165
-15.341423	-0.065000	100.974686
-14.341423	-0.065000	98.943977
-13.341423	-0.065000	95.123566
-12.341423	-0.065000	100.722099
-11.341423	-0.065000	97.806053
-10.341423	-0.065000	98.821342
-9.341423	-0.065000	100.055832
-8.341423	-0.065000	102.769234
-7.341423	-0.065000	97.163544
-6.341423	-0.065000	94.435585
-5.341423	-0.065000	99.458801
-4.341423	-0.065000	102.070801
-3.341423	-0.065000	94.326538
-2.341423	-0.065000	90.745850
-1.341423	-0.065000	94.739326
-0.341423	-0.065000	91.380699
0.658577	-0.065000	90.954948
1.658577	-0.065000	90.689987
2.658577	-0.065000	93.206757
3.658577	-0.065000	84.139893
4.658577	-0.065000	88.239189
5.658577	-0.065000	98.305069
6.658577	-0.065000	92.709480
7.658577	-0.065000	98.450287
8.658577	-0.065000	99.535248
9.658577	-0.065000	98.259239
10.658577	-0.065000	96.747513
11.658577	-0.065000	101.405922
12.658577	-0.065000	99.396294
13.658577	-0.065000	96.794617
14.658577	-0.065000	102.043579
15.658577	-0.065000	91.794205
16.658577	-0.065000	90.661926
17.658577	-0.065000	89.865799
18.658577	-0.065000	97.062317
19.658577	-0.065000	88.581947
20.658577	-0.065000	86.308372
21.658577	-0.065000	94.630180
22.658577	-0.065000	91.967346
23.658577	-0.065000	75.903831
24.658577	-0.065000	88.282829
-39.341423	0.935000	132.938339
-38.341423	0.935000	69.162994
-37.341423	0.935000	223.290161
-36.341423	0.935000	78.598343
-35.341423	0.935000	105.370872
-34.341423	0.935000	108.315628
-33.341423	0.935000	96.399521
-32.341423	0.935000	91.163383
-31.341423	0.935000	91.096840
-30.341423	0.935000	92.284615
-29.341423	0.935000	74.939964
-28.341423	0.935000	15.037463
-27.341423	0.935000	89.485924
-26.341423	0.935000	94.880028
-25.341423	0.935000	101.849487
-24.341423	0.935000	96.170418
-23.341423	0.935000	100.392487
-22.341423	0.935000	98.129601
-21.341423	0.935000	93.613617
-20.341423	0.935000	93.630775
-19.341423	0.935000	96.379959
-18.341423	0.935000	100.309303
-17.341423	0.935000	101.989998
-16.341423	0.935000	97.209366
-15.341423	0.935000	99.810493
-14.341423	0.935000	98.490685
-13.341423	0.935000	97.536461
-12.341423	0.935000	98.506233
-11.341423	0.935000	99.587349
-10.341423	0.935000	101.900085
-9.341423	0.935000	96.911987
-8.341423	0.935000	97.559265
-7.341423	0.935000	96.325500
-6.341423	0.935000	93.953384
-5.341423	0.935000	101.578026
-4.341423	0.935000	100.305489
-3.341423	0.935000	90.273483
-2.341423	0.935000	92.360374
-1.341423	0.935000	95.116608
-0.341423	0.935000	93.498375
0.658577	0.935000	89.376305
1.658577	0.935000	90.014717
2.658577	0.935000	86.592400
3.658577	0.935000	83.048302
4.658577	0.935000	92.536484
5.658577	0.935000	97.161163
6.658577	0.935000	100.624779
7.658577	0.935000	99.093208
8.658577	0.935000	99.035370
9.658577	0.935000	99.286316
10.658577	0.935000	96.621185
11.658577	0.935000	95.174622
12.658577	0.935000	97.445007
13.658577	0.935000	96.695465
14.658577	0.935000	100.746017
15.658577	0.935000	92.784012
16.658577	0.935000	93.236786
17.658577	0.935000	93.698708
18.658577	0.935000	95.321968
19.658577	0.935000	90.075180
20.658577	0.935000	90.479584
21.658577	0.935000	89.593239
22.658577	0.935000	92.643219
23.658577	0.935000	92.331055
24.658577	0.935000	85.245491
-39.341423	1.935000	139.921021
-38.341423	1.935000	124.203171
-37.341423	1.935000	114.835648
-36.341423	1.935000	102.340996
-35.341423	1.935000	104.322586
-34.341423	1.935000	105.663612
-33.341423	1.935000	96.330101
-32.341423	1.935000	92.637703
-31.341423	1.935000	81.125755
-30.341423	1.935000	83.240059
-29.341423	1.935000	87.881004
-28.341423	1.935000	73.279785
-27.341423	1.935000	90.961624
-26.341423	1.935000	88.941971
-25.341423	1.935000	97.700432
-24.341423	1.935000	93.389671
-23.341423	1.935000	97.412315
-22.341423	1.935000	97.231873
-21.341423	1.935000	98.869545
-20.341423	1.935000	96.676094
-19.341423	1.935000	98.113930
-18.341423	1.935000	108.545685
-17.341423	1.935000	103.010033
-16.341423	1.935000	149.861252
-15.341423	1.935000	93.445587
-14.341423	1.935000	98.693832
-13.341423	1.935000	101.017006
-12.341423	1.935000	98.080666
-11.341423	1.935000	100.162697
-10.341423	1.935000	98.221558
-9.341423	1.935000	93.263969
-8.341423	1.935000	92.853325
-7.341423	1.935000	88.547844
-6.341423	1.935000	92.979836
-5.341423	1.935000	97.828705
-4.341423	1.935000	98.452957
-3.341423	1.935000	94.535973
-2.341423	1.935000	95.295074
-1.341423	1.935000	92.865982
-0.341423	1.935000	91.518059
0.658577	1.935000	92.972290
1.658577	1.935000	85.084946
2.658577	1.935000	96.199150
3.658577	1.935000	93.065857
4.658577	1.935000	99.817535
5.658577	1.935000	97.711533
6.658577	1.935000	100.896675
7.658577	1.935000	99.102455
8.658577	1.935000	100.615158
9.658577	1.935000	95.219215
10.658577	1.935000	95.610535
11.658577	1.935000	92.280144
12.658577	1.935000	96.591743
13.658577	1.935000	96.433006
14.658577	1.935000	103.929062
15.658577	1.935000	89.884010
16.658577	1.935000	87.050873
17.658577	1.935000	91.723923
18.658577	1.935000	96.230782
19.658577	1.935000	89.679863
20.658577	1.935000	86.784996
21.658577	1.935000	85.738510
22.658577	1.935000	90.091919
23.658577	1.935000	96.301262
24.658577	1.935000	97.719200
-39.341423	2.935000	98.694832
-38.341423	2.935000	99.705399
-37.341423	2.935000	99.829117
-36.341423	2.935000	99.954445
-35.341423	2.935000	99.828400
-34.341423	2.935000	104.910530
-33.341423	2.935000	95.641258
-32.341423	2.935000	89.522804
-31.341423	2.935000	77.989326
-30.341423	2.935000	73.234329
-29.341423	2.935000	89.843498
-28.341423	2.935000	104.735336
-27.341423	2.935000	102.904350
-26.341423	2.935000	104.621742
-25.341423	2.935000	103.974106
-24.341423	2.935000	94.982742
-23.341423	2.935000	92.381721
-22.341423	2.935000	98.777466
-21.341423	2.935000	95.767761
-20.341423	2.935000	93.279633
-19.341423	2.935000	97.521530
-18.341423	2.935000	102.299232
-17.341423	2.935000	69.761307
-16.341423	2.935000	119.979919
-15.341423	2.935000	89.732841
-14.341423	2.935000	99.491661
-13.341423	2.935000	100.836334
-12.341423	2.935000	100.016548
-11.341423	2.935000	98.576004
-10.341423	2.935000	100.889015
-9.341423	2.935000	101.180016
-8.341423	2.935000	104.336006
-7.341423	2.935000	96.412857
-6.341423	2.935000	97.709366
-5.341423	2.935000	97.463402
-4.341423	2.935000	98.123932
-3.341423	2.935000	97.145470
-2.341423	2.935000	95.784348
-1.341423	2.935000	93.715157
-0.341423	2.935000	91.248413
0.658577	2.935000	92.990242
1.658577	2.935000	92.988464
2.658577	2.935000	89.007477
3.658577	2.935000	98.105629
4.658577	2.935000	100.476784
5.658577	2.935000	99.058640
6.658577	2.935000	91.537331
7.658577	2.935000	90.129715
8.658577	2.935000	95.888397
9.658577	2.935000	96.332802
10.658577	2.935000	96.301369
11.658577	2.935000	95.997810
12.658577	2.935000	91.116646
13.658577	2.935000	97.091125
14.658577	2.935000	97.462326
15.658577	2.935000	87.245438
16.658577	2.935000	89.490181
17.658577	2.935000	91.616814
18.658577	2.935000	92.392555
19.658577	2.935000	88.134193
20.658577	2.935000	88.533119
21.658577	2.935000	85.556915
22.658577	2.935000	90.522949
23.658577	2.935000	100.393913
24.658577	2.935000	93.673920
-39.341423	3.935000	96.969398
-38.341423	3.935000	96.535149
-37.341423	3.935000	97.222115
-36.341423	3.935000	99.756569
-35.341423	3.935000	96.293030
-34.341423	3.935000	107.433525
-33.341423	3.935000	102.887848
-32.341423	3.935000	90.513954
-31.341423	3.935000	90.436081
-30.341423	3.935000	88.433746
-29.341423	3.935000	88.989967
-28.341423	3.935000	102.498192
-27.341423	3.935000	104.072296
-26.341423	3.935000	96.917374
-25.341423	3.935000	102.378647
-24.341423	3.935000	97.552574
-23.341423	3.935000	96.114540
-22.341423	3.935000	93.809647
-21.341423	3.935000	94.672752
-20.341423	3.935000	99.507576
-19.341423	3.935000	97.274162
-18.341423	3.935000	97.971252
-17.341423	3.935000	95.143448
-16.341423	3.935000	85.404976
-15.341423	3.935000	95.641182
-14.341423	3.935000	115.757645
-13.341423	3.935000	94.698090
-12.341423	3.935000	95.655060
-11.341423	3.935000	97.845818
-10.341423	3.935000	101.943970
-9.341423	3.935000	97.492737
-8.341423	3.935000	103.785980
-7.341423	3.935000	99.057671
-6.341423	3.935000	97.438004
-5.341423	3.935000	103.047096
-4.341423	3.935000	96.510658
-3.341423	3.935000	94.244896
-2.341423	3.935000	96.178200
-1.341423	3.935000	96.426216
-0.341423	3.935000	91.438087
0.658577	3.935000	94.661591
1.658577	3.935000	93.711716
2.658577	3.935000	97.066826
3.658577	3.935000	97.873962
4.658577	3.935000	102.435829
5.658577	3.935000	96.155479
6.658577	3.935000	95.828690
7.658577	3.935000	100.102524
8.658577	3.935000	97.786705
9.658577	3.935000	95.419502
10.658577	3.935000	95.513847
11.658577	3.935000	93.830101
12.658577	3.935000	97.071609
13.658577	3.935000	98.589378
14.658577	3.935000	97.374397
15.658577	3.935000	95.123451
16.658577	3.935000	89.526093
17.658577	3.935000	93.821823
18.658577	3.935000	95.056038
19.658577	3.935000	94.859772
20.658577	3.935000	98.129295
21.658577	3.935000	93.833107
22.658577	3.935000	94.410583
23.658577	3.935000	101.443336
24.658577	3.935000	95.065353
-39.341423	4.935000	92.999969
-38.341423	4.935000	94.054565
-37.341423	4.935000	95.763718
-36.341423	4.935000	99.461227
-35.341423	4.935000	97.966713
-34.341423	4.935000	95.953346
-33.341423	4.935000	97.596275
-32.341423	4.935000	93.118332
-31.341423	4.935000	94.448822
-30.341423	4.935000	96.215897
-29.341423	4.935000	96.866264
-28.341423	4.935000	92.619171
-27.341423	4.935000	103.168602
-26.341423	4.935000	97.397064
-25.341423	4.935000	100.955765
-24.341423	4.935000	98.715408
-23.341423	4.935000	95.612022
-22.341423	4.935000	98.674881
-21.341423	4.935000	97.838699
-20.341423	4.935000	98.152542
-19.341423	4.935000	95.025551
-18.341423	4.935000	95.253822
-17.341423	4.935000	94.275696
-16.341423	4.935000	92.959152
-15.341423	4.935000	98.233025
-14.341423	4.935000	97.552261
-13.341423	4.935000	106.540176
-12.341423	4.935000	101.954071
-11.341423	4.935000	92.602501
-10.341423	4.935000	99.962097
-9.341423	4.935000	101.054466
-8.341423	4.935000	100.358368
-7.341423	4.935000	101.507996
-6.341423	4.935000	98.455383
-5.341423	4.935000	104.880486
-4.341423	4.935000	88.375359
-3.341423	4.935000	90.394180
-2.341423	4.935000	93.834137
-1.341423	4.935000	95.215813
-0.341423	4.935000	92.856972
0.658577	4.935000	92.309219
1.658577	4.935000	89.581612
2.658577	4.935000	97.613472
3.658577	4.935000	106.254700
4.658577	4.935000	95.047653
5.658577	4.935000	98.886368
6.658577	4.935000	100.381943
7.658577	4.935000	95.624084
8.658577	4.935000	99.756386
9.658577	4.935000	98.389481
10.658577	4.935000	94.649841
11.658577	4.935000	93.335800
12.658577	4.935000	100.876862
13.658577	4.935000	98.866585
14.658577	4.935000	95.476128
15.658577	4.935000	94.390144
16.658577	4.935000	89.478363
17.658577	4.935000	88.390976
18.658577	4.935000	95.017914
19.658577	4.935000	95.889641
20.658577	4.935000	99.028458
21.658577	4.935000	95.322601
22.658577	4.935000	100.279549
23.658577	4.935000	94.555634
24.658577	4.935000	94.261032
-39.341423	5.935000	95.771744
-38.341423	5.935000	95.333557
-37.341423	5.935000	98.668945
-36.341423	5.935000	95.353203
-35.341423	5.935000	99.102539
-34.341423	5.935000	96.031258
-33.341423	5.935000	99.844521
-32.341423	5.935000	94.678970
-31.341423	5.935000	96.041420
-30.341423	5.935000	99.136681
-29.341423	5.935000	89.895821
-28.341423	5.935000	88.736732
-27.341423	5.935000	102.989258
-26.341423	5.935000	99.582832
-25.341423	5.935000	99.683685
-24.341423	5.935000	97.826385
-23.341423	5.935000	101.277428
-22.341423	5.935000	85.647469
-21.341423	5.935000	96.258781
-20.341423	5.935000	93.492058
-19.341423	5.935000	95.833298
-18.341423	5.935000	95.029907
-17.341423	5.935000	90.188118
-16.341423	5.935000	92.092369
-15.341423	5.935000	100.943359
-14.341423	5.935000	101.403137
-13.341423	5.935000	88.987076
-12.341423	5.935000	89.959671
-11.341423	5.935000	90.659889
-10.341423	5.935000	98.455971
-9.341423	5.935000	99.377502
-8.341423	5.935000	105.856087
-7.341423	5.935000	102.862076
-6.341423	5.935000	102.845009
-5.341423	5.935000	108.067970
-4.341423	5.935000	96.158363
-3.341423	5.935000	94.080460
-2.341423	5.935000	94.166359
-1.341423	5.935000	92.318893
-0.341423	5.935000	92.998466
0.658577	5.935000	93.258728
1.658577	5.935000	92.794746
2.658577	5.935000	94.720390
3.658577	5.935000	97.352402
4.658577	5.935000	91.667999
5.658577	5.935000	94.364052
6.658577	5.935000	93.260620
7.658577	5.935000	94.141479
8.658577	5.935000	92.199966
9.658577	5.935000	99.394989
10.658577	5.935000	99.714066
11.658577	5.935000	98.203644
12.658577	5.935000	101.430779
13.658577	5.935000	97.286911
14.658577	5.935000	100.364006
15.658577	5.935000	95.578186
16.658577	5.935000	94.544945
17.658577	5.935000	93.117172
18.658577	5.935000	92.904572
19.658577	5.935000	92.513786
20.658577	5.935000	98.548904
21.658577	5.935000	97.744118
22.658577	5.935000	96.466248
23.658577	5.935000	98.652443
24.658577	5.935000	105.087418
-39.341423	6.935000	99.062057
-38.341423	6.935000	96.670189
-37.341423	6.935000	98.799919
-36.341423	6.935000	97.456062
-35.341423	6.935000	96.380280
-34.341423	6.935000	94.856133
-33.341423	6.935000	94.969070
-32.341423	6.935000	94.521294
-31.341423	6.935000	92.325058
-30.341423	6.935000	93.458740
-29.341423	6.935000	94.034660
-28.341423	6.935000	89.601288
-27.341423	6.935000	96.073280
-26.341423	6.935000	94.863083
-25.341423	6.935000	100.464966
-24.341423	6.935000	100.456169
-23.341423	6.935000	94.060104
-22.341423	6.935000	92.830032
-21.341423	6.935000	87.474167
-20.341423	6.935000	93.021149
-19.341423	6.935000	94.834175
-18.341423	6.935000	95.445236
-17.341423	6.935000	93.369675
-16.341423	6.935000	94.970085
-15.341423	6.935000	99.502243
-14.341423	6.935000	98.539734
-13.341423	6.935000	96.413216
-12.341423	6.935000	96.806381
-11.341423	6.935000	73.369003
-10.341423	6.935000	69.268112
-9.341423	6.935000	78.931168
-8.341423	6.935000	92.851540
-7.341423	6.935000	96.646759
-6.341423	6.935000	102.580162
-5.341423	6.935000	99.131485
-4.341423	6.935000	98.192734
-3.341423	6.935000	92.164833
-2.341423	6.935000	93.995468
-1.341423	6.935000	93.577988
-0.341423	6.935000	94.117050
0.658577	6.935000	91.787315
1.658577	6.935000	97.596260
2.658577	6.935000	97.221634
3.658577	6.935000	97.359047
4.658577	6.935000	95.305359
5.658577	6.935000	94.591835
6.658577	6.935000	98.386612
7.658577	6.935000	96.949913
8.658577	6.935000	93.821556
9.658577	6.935000	96.652077
10.658577	6.935000	98.742523
11.658577	6.935000	95.698067
12.658577	6.935000	96.465584
13.658577	6.935000	95.524704
14.658577	6.935000	96.645798
15.658577	6.935000	95.589928
16.658577	6.935000	95.288177
17.658577	6.935000	92.069077
18.658577	6.935000	93.914536
19.658577	6.935000	96.150459
20.658577	6.935000	98.470886
21.658577	6.935000	96.561012
22.658577	6.935000	98.082977
23.658577	6.935000	99.914429
24.658577	6.935000	93.862274
-39.341423	7.935000	98.504532
-38.341423	7.935000	100.263710
-37.341423	7.935000	97.885925
-36.341423	7.935000	97.243362
-35.341423	7.935000	99.645554
-34.341423	7.935000	97.054245
-33.341423	7.935000	92.863571
-32.341423	7.935000	94.581665
-31.341423	7.935000	93.106949
-30.341423	7.935000	95.695297
-29.341423	7.935000	96.981216
-28.341423	7.935000	97.675667
-27.341423	7.935000	89.705147
-26.341423	7.935000	92.593071
-25.341423	7.935000	96.199677
-24.341423	7.935000	94.675819
-23.341423	7.935000	92.078949
-22.341423	7.935000	90.759392
-21.341423	7.935000	87.395012
-20.341423	7.935000	93.650185
-19.341423	7.935000	94.716637
-18.341423	7.935000	93.227448
-17.341423	7.935000	91.055496
-16.341423	7.935000	95.094444
-15.341423	7.935000	100.191689
-14.341423	7.935000	96.734932
-13.341423	7.935000	99.894073
-12.341423	7.935000	99.247437
-11.341423	7.935000	79.473785
-10.341423	7.935000	60.696754
-9.341423	7.935000	64.326096
-8.341423	7.935000	67.291023
-7.341423	7.935000	62.106594
-6.341423	7.935000	95.760658
-5.341423	7.935000	100.277336
-4.341423	7.935000	93.989632
-3.341423	7.935000	87.488937
-2.341423	7.935000	92.453613
-1.341423	7.935000	94.696884
-0.341423	7.935000	90.531937
0.658577	7.935000	92.680984
1.658577	7.935000	100.360527
2.658577	7.935000	101.059578
3.658577	7.935000	98.126953
4.658577	7.935000	98.619469
5.658577	7.935000	100.889557
6.658577	7.935000	106.268867
7.658577	7.935000	84.392227
8.658577	7.935000	96.564987
9.658577	7.935000	98.918358
10.658577	7.935000	97.956566
11.658577	7.935000	97.698174
12.658577	7.935000	94.769653
13.658577	7.935000	95.112862
14.658577	7.935000	92.284271
15.658577	7.935000	93.831566
16.658577	7.935000	94.237106
17.658577	7.935000	98.985008
18.658577	7.935000	92.739166
19.658577	7.935000	108.016205
20.658577	7.935000	102.295387
21.658577	7.935000	95.641541
22.658577	7.935000	96.742874
23.658577	7.935000	95.850433
24.658577	7.935000	95.804420
-39.341423	8.935000	98.567558
-38.341423	8.935000	99.436424
-37.341423	8.935000	99.481079
-36.341423	8.935000	100.855644
-35.341423	8.935000	97.460464
-34.341423	8.935000	95.810364
-33.341423	8.935000	96.498932
-32.341423	8.935000	95.639908
-31.341423	8.935000	97.498779
-30.341423	8.935000	97.196625
-29.341423	8.935000	95.157814
-28.341423	8.935000	96.141968
-27.341423	8.935000	93.328979
-26.341423	8.935000	95.249420
-25.341423	8.935000	98.866898
-24.341423	8.935000	93.195625
-23.341423	8.935000	88.352272
-22.341423	8.935000	84.989944
-21.341423	8.935000	86.376198
-20.341423	8.935000	96.907288
-19.341423	8.935000	97.207542
-18.341423	8.935000	91.258331
-17.341423	8.935000	97.178085
-16.341423	8.935000	97.810852
-15.341423	8.935000	100.507652
-14.341423	8.935000	96.953903
-13.341423	8.935000	98.467262
-12.341423	8.935000	96.073509
-11.341423	8.935000	85.484306
-10.341423	8.935000	64.636345
-9.341423	8.935000	62.916553
-8.341423	8.935000	63.436893
-7.341423	8.935000	67.384567
-6.341423	8.935000	90.923264
-5.341423	8.935000	89.380173
-4.341423	8.935000	85.427841
-3.341423	8.935000	90.747864
-2.341423	8.935000	98.584770
-1.341423	8.935000	94.089828
-0.341423	8.935000	94.056686
0.658577	8.935000	98.458099
1.658577	8.935000	99.928963
2.658577	8.935000	101.409576
3.658577	8.935000	106.275368
4.658577	8.935000	99.058746
5.658577	8.935000	104.166206
6.658577	8.935000	103.947243
7.658577	8.935000	82.411446
8.658577	8.935000	90.783173
9.658577	8.935000	85.743675
10.658577	8.935000	96.814819
11.658577	8.935000	101.230888
12.658577	8.935000	97.961990
13.658577	8.935000	100.166985
14.658577	8.935000	96.062927
15.658577	8.935000	96.381516
16.658577	8.935000	105.413162
17.658577	8.935000	101.427986
18.658577	8.935000	94.792953
19.658577	8.935000	73.328751
20.658577	8.935000	97.476532
21.658577	8.935000	89.391022
22.658577	8.935000	93.676857
23.658577	8.935000	95.069504
24.658577	8.935000	94.404030
-39.341423	9.935000	97.775696
-38.341423	9.935000	98.401329
-37.341423	9.935000	99.854416
-36.341423	9.935000	95.074455
-35.341423	9.935000	95.962151
-34.341423	9.935000	94.292274
-33.341423	9.935000	96.882011
-32.341423	9.935000	96.455566
-31.341423	9.935000	95.968483
-30.341423	9.935000	93.289055
-29.341423	9.935000	96.150909
-28.341423	9.935000	98.606186
-27.341423	9.935000	99.413971
-26.341423	9.935000	100.542076
-25.341423	9.935000	96.398674
-24.341423	9.935000	95.497902
-23.341423	9.935000	85.435669
-22.341423	9.935000	82.765709
-21.341423	9.935000	85.098129
-20.341423	9.935000	91.043564
-19.341423	9.935000	95.514702
-18.341423	9.935000	94.466385
-17.341423	9.935000	98.732384
-16.341423	9.935000	100.081223
-15.341423	9.935000	97.928604
-14.341423	9.935000	97.719543
-13.341423	9.935000	98.369789
-12.341423	9.935000	98.551743
-11.341423	9.935000	85.815651
-10.341423	9.935000	63.699223
-9.341423	9.935000	59.685268
-8.341423	9.935000	59.641628
-7.341423	9.935000	74.371376
-6.341423	9.935000	97.638588
-5.341423	9.935000	95.987640
-4.341423	9.935000	98.419159
-3.341423	9.935000	94.190308
-2.341423	9.935000	98.451797
-1.341423	9.935000	95.325439
-0.341423	9.935000	96.883484
0.658577	9.935000	96.706917
1.658577	9.935000	94.834511
2.658577	9.935000	100.437180
3.658577	9.935000	104.174881
4.658577	9.935000	103.551292
5.658577	9.935000	104.581902
6.658577	9.935000	108.380066
7.658577	9.935000	96.432999
8.658577	9.935000	103.829201
9.658577	9.935000	89.690498
10.658577	9.935000	81.683167
11.658577	9.935000	93.329330
12.658577	9.935000	105.796921
13.658577	9.935000	95.819511
14.658577	9.935000	73.580536
15.658577	9.935000	99.101234
16.658577	9.935000	68.920502
17.658577	9.935000	84.829109
18.658577	9.935000	46.313084
19.658577	9.935000	1.040953
20.658577	9.935000	93.048172
21.658577	9.935000	94.600700
22.658577	9.935000	94.299248
23.658577	9.935000	86.795815
24.658577	9.935000	102.780289
-39.341423	10.935000	99.908318
-38.341423	10.935000	95.418785
-37.341423	10.935000	96.296768
-36.341423	10.935000	96.575951
-35.341423	10.935000	96.609444
-34.341423	10.935000	95.498245
-33.341423	10.935000	96.461464
-32.341423	10.935000	97.078560
-31.341423	10.935000	98.879517
-30.341423	10.935000	97.219933
-29.341423	10.935000	95.589027
-28.341423	10.935000	96.251091
-27.341423	10.935000	97.377357
-26.341423	10.935000	96.520340
-25.341423	10.935000	100.315231
-24.341423	10.935000	74.202042
-23.341423	10.935000	89.022530
-22.341423	10.935000	84.915642
-21.341423	10.935000	84.553749
-20.341423	10.935000	95.113213
-19.341423	10.935000	99.127617
-18.341423	10.935000	98.345772
-17.341423	10.935000	96.750343
-16.341423	10.935000	86.640198
-15.341423	10.935000	98.687691
-14.341423	10.935000	96.685020
-13.341423	10.935000	98.739159
-12.341423	10.935000	98.758003
-11.341423	10.935000	87.165001
-10.341423	10.935000	66.647842
-9.341423	10.935000	63.939907
-8.341423	10.935000	65.414322
-7.341423	10.935000	74.120926
-6.341423	10.935000	92.177536
-5.341423	10.935000	98.557190
-4.341423	10.935000	96.426254
-3.341423	10.935000	92.197296
-2.341423	10.935000	95.478622
-1.341423	10.935000	93.884941
-0.341423	10.935000	97.549492
0.658577	10.935000	103.072014
1.658577	10.935000	98.079582
2.658577	10.935000	98.153809
3.658577	10.935000	91.311928
4.658577	10.935000	102.656868
5.658577	10.935000	99.898445
6.658577	10.935000	103.197739
7.658577	10.935000	98.394333
8.658577	10.935000	98.736420
9.658577	10.935000	89.780060
10.658577	10.935000	95.188217
11.658577	10.935000	90.488258
12.658577	10.935000	97.210236
13.658577	10.935000	105.428879
14.658577	10.935000	33.770939
15.658577	10.935000	0.639823
16.658577	10.935000	0.639823
17.658577	10.935000	0.639823
18.658577	10.935000	3.441494
19.658577	10.935000	2.063289
20.658577	10.935000	95.031586
21.658577	10.935000	93.288948
22.658577	10.935000	93.129578
23.658577	10.935000	100.306740
24.658577	10.935000	90.598618
-39.341423	11.935000	92.206245
-38.341423	11.935000	96.131653
-37.341423	11.935000	98.840820
-36.341423	11.935000	96.819748
-35.341423	11.935000	96.564354
-34.341423	11.935000	95.466446
-33.341423	11.935000	96.824059
-32.341423	11.935000	97.983315
-31.341423	11.935000	97.865303
-30.341423	11.935000	98.668434
-29.341423	11.935000	97.821648
-28.341423	11.935000	95.915627
-27.341423	11.935000	99.908257
-26.341423	11.935000	89.764999
-25.341423	11.935000	103.924416
-24.341423	11.935000	85.593803
-23.341423	11.935000	92.957817
-22.341423	11.935000	98.625717
-21.341423	11.935000	93.742508
-20.341423	11.935000	94.610710
-19.341423	11.935000	100.532791
-18.341423	11.935000	94.225929
-17.341423	11.935000	86.408150
-16.341423	11.935000	86.164543
-15.341423	11.935000	94.225807
-14.341423	11.935000	96.205757
-13.341423	11.935000	95.325821
-12.341423	11.935000	99.809586
-11.341423	11.935000	89.307961
-10.341423	11.935000	81.175552
-9.341423	11.935000	66.258347
-8.341423	11.935000	67.437859
-7.341423	11.935000	72.804665
-6.341423	11.935000	77.293266
-5.341423	11.935000	91.451775
-4.341423	11.935000	91.737175
-3.341423	11.935000	99.074356
-2.341423	11.935000	94.792664
-1.341423	11.935000	97.208313
-0.341423	11.935000	95.542671
0.658577	11.935000	103.464134
1.658577	11.935000	99.514206
2.658577	11.935000	99.154869
3.658577	11.935000	107.374626
4.658577	11.935000	135.084457
5.658577	11.935000	106.762115
6.658577	11.935000	105.075890
7.658577	11.935000	98.624100
8.658577	11.935000	100.096916
9.658577	11.935000	100.130760
10.658577	11.935000	98.611717
11.658577	11.935000	98.246933
12.658577	11.935000	99.833649
13.658577	11.935000	86.127533
14.658577	11.935000	74.673569
15.658577	11.935000	106.519897
16.658577	11.935000	89.350876
17.658577	11.935000	0.952799
18.658577	11.935000	48.144539
19.658577	11.935000	58.554970
20.658577	11.935000	106.139893
21.658577	11.935000	94.231171
22.658577	11.935000	95.091515
23.658577	11.935000	95.542603
24.658577	11.935000	95.743202
-39.341423	12.935000	96.073509
-38.341423	12.935000	94.382500
-37.341423	12.935000	96.393127
-36.341423	12.935000	99.797821
-35.341423	12.935000	96.244377
-34.341423	12.935000	97.764999
-33.341423	12.935000	99.200455
-32.341423	12.935000	97.466316
-31.341423	12.935000	96.065659
-30.341423	12.935000	95.116081
-29.341423	12.935000	96.363647
-28.341423	12.935000	93.637161
-27.341423	12.935000	85.128761
-26.341423	12.935000	82.649399
-25.341423	12.935000	90.342438
-24.341423	12.935000	91.255356
-23.341423	12.935000	87.654488
-22.341423	12.935000	89.546227
-21.341423	12.935000	93.454834
-20.341423	12.935000	94.577301
-19.341423	12.935000	95.144920
-18.341423	12.935000	92.638451
-17.341423	12.935000	84.460014
-16.341423	12.935000	81.675270
-15.341423	12.935000	98.531052
-14.341423	12.935000	98.955025
-13.341423	12.935000	97.860252
-12.341423	12.935000	94.318619
-11.341423	12.935000	86.710274
-10.341423	12.935000	88.787430
-9.341423	12.935000	87.847710
-8.341423	12.935000	90.149391
-7.341423	12.935000	92.477928
-6.341423	12.935000	82.559692
-5.341423	12.935000	97.698723
-4.341423	12.935000	96.928940
-3.341423	12.935000	97.985504
-2.341423	12.935000	96.897743
-1.341423	12.935000	93.459763
-0.341423	12.935000	107.368820
0.658577	12.935000	103.535370
1.658577	12.935000	106.730354
2.658577	12.935000	101.943382
3.658577	12.935000	99.108292
4.658577	12.935000	111.835533
5.658577	12.935000	97.889374
6.658577	12.935000	97.244850
7.658577	12.935000	96.110832
8.658577	12.935000	95.560791
9.658577	12.935000	92.715828
10.658577	12.935000	100.309540
11.658577	12.935000	101.135902
12.658577	12.935000	100.064224
13.658577	12.935000	91.426788
14.658577	12.935000	58.276356
15.658577	12.935000	92.650932
16.658577	12.935000	3.140427
17.658577	12.935000	628.237183
18.658577	12.935000	86.891708
19.658577	12.935000	622.371277
20.658577	12.935000	33.390266
21.658577	12.935000	80.279892
22.658577	12.935000	94.544388
23.658577	12.935000	97.355888
24.658577	12.935000	86.965874
-39.341423	13.935000	94.308884
-38.341423	13.935000	96.535400
-37.341423	13.935000	95.080200
-36.341423	13.935000	97.783188
-35.341423	13.935000	95.987778
-34.341423	13.935000	97.997772
-33.341423	13.935000	96.350945
-32.341423	13.935000	98.509544
-31.341423	13.935000	96.431473
-30.341423	13.935000	94.944588
-29.341423	13.935000	92.465973
-28.341423	13.935000	84.232346
-27.341423	13.935000	83.192596
-26.341423	13.935000	80.065453
-25.341423	13.935000	75.021439
-24.341423	13.935000	89.035912
-23.341423	13.935000	85.458969
-22.341423	13.935000	92.501083
-21.341423	13.935000	94.846596
-20.341423	13.935000	93.148849
-19.341423	13.935000	93.838074
-18.341423	13.935000	96.354553
-17.341423	13.935000	92.952171
-16.341423	13.935000	86.041138
-15.341423	13.935000	95.342438
-14.341423	13.935000	97.464935
-13.341423	13.935000	94.619888
-12.341423	13.935000	95.675461
-11.341423	13.935000	94.996666
-10.341423	13.935000	90.227013
-9.341423	13.935000	95.800514
-8.341423	13.935000	103.755371
-7.341423	13.935000	98.605774
-6.341423	13.935000	98.611908
-5.341423	13.935000	98.523773
-4.341423	13.935000	96.295700
-3.341423	13.935000	96.828835
-2.341423	13.935000	92.721680
-1.341423	13.935000	89.732246
-0.341423	13.935000	99.121315
0.658577	13.935000	101.849533
1.658577	13.935000	96.578949
2.658577	13.935000	99.651627
3.658577	13.935000	102.478676
4.658577	13.935000	70.079453
5.658577	13.935000	111.700600
6.658577	13.935000	98.500603
7.658577	13.935000	97.088188
8.658577	13.935000	88.435081
9.658577	13.935000	96.675179
10.658577	13.935000	93.521332
11.658577	13.935000	92.197281
12.658577	13.935000	100.105957
13.658577	13.935000	97.380318
14.658577	13.935000	17.494928
15.658577	13.935000	0.639823
16.658577	13.935000	1.481596
17.658577	13.935000	100.323433
18.658577	13.935000	1.906973
19.658577	13.935000	314.066254
20.658577	13.935000	0.639823
21.658577	13.935000	0.711735
22.658577	13.935000	72.443153
23.658577	13.935000	29.787197
24.658577	13.935000	21.729328
-39.341423	14.935000	99.362869
-38.341423	14.935000	100.092972
-37.341423	14.935000	98.753830
-36.341423	14.935000	96.682159
-35.341423	14.935000	95.425987
-34.341423	14.935000	96.948082
-33.341423	14.935000	95.735603
-32.341423	14.935000	98.235100
-31.341423	14.935000	96.845718
-30.341423	14.935000	94.499390
-29.341423	14.935000	86.870422
-28.341423	14.935000	79.284492
-27.341423	14.935000	81.360390
-26.341423	14.935000	82.748428
-25.341423	14.935000	80.806511
-24.341423	14.935000	82.706421
-23.341423	14.935000	93.099365
-22.341423	14.935000	90.656677
-21.341423	14.935000	98.196396
-20.341423	14.935000	96.891632
-19.341423	14.935000	95.990349
-18.341423	14.935000	92.331970
-17.341423	14.935000	92.501205
-16.341423	14.935000	93.519272
-15.341423	14.935000	96.919632
-14.341423	14.935000	90.675888
-13.341423	14.935000	91.971428
-12.341423	14.935000	89.159348
-11.341423	14.935000	97.434990
-10.341423	14.935000	101.096443
-9.341423	14.935000	102.352089
-8.341423	14.935000	101.625351
-7.341423	14.935000	98.539612
-6.341423	14.935000	97.592194
-5.341423	14.935000	96.991470
-4.341423	14.935000	95.945297
-3.341423	14.935000	94.437325
-2.341423	14.935000	100.601540
-1.341423	14.935000	96.159744
-0.341423	14.935000	90.315788
0.658577	14.935000	101.480667
1.658577	14.935000	100.900574
2.658577	14.935000	105.167892
3.658577	14.935000	101.794281
4.658577	14.935000	88.829262
5.658577	14.935000	108.353424
6.658577	14.935000	113.177643
7.658577	14.935000	91.708084
8.658577	14.935000	91.043671
9.658577	14.935000	96.263504
10.658577	14.935000	93.576645
11.658577	14.935000	95.942863
12.658577	14.935000	93.802177
13.658577	14.935000	105.174797
14.658577	14.935000	68.308525
15.658577	14.935000	0.639823
16.658577	14.935000	2557.389648
17.658577	14.935000	127.083710
18.658577	14.935000	0.639823
19.658577	14.935000	0.639823
20.658577	14.935000	183.099091
21.658577	14.935000	0.639823
22.658577	14.935000	211.906326
23.658577	14.935000	41.934902
24.658577	14.935000	68.598160
-39.341423	15.935000	98.725159
-38.341423	15.935000	101.025948
-37.341423	15.935000	97.828461
-36.341423	15.935000	98.252762
-35.341423	15.935000	95.365005
-34.341423	15.935000	97.382408
-33.341423	15.935000	99.241142
-32.341423	15.935000	98.373680
-31.341423	15.935000	96.991425
-30.341423	15.935000	102.873329
-29.341423	15.935000	91.088470
-28.341423	15.935000	80.586029
-27.341423	15.935000	78.748238
-26.341423	15.935000	82.745750
-25.341423	15.935000	83.474098
-24.341423	15.935000	78.808517
-23.341423	15.935000	80.312378
-22.341423	15.935000	92.583244
-21.341423	15.935000	94.929199
-20.341423	15.935000	88.643829
-19.341423	15.935000	92.213623
-18.341423	15.935000	91.675171
-17.341423	15.935000	91.813370
-16.341423	15.935000	92.153351
-15.341423	15.935000	92.134499
-14.341423	15.935000	91.500458
-13.341423	15.935000	94.661255
-12.341423	15.935000	95.133011
-11.341423	15.935000	90.404846
-10.341423	15.935000	111.348709
-9.341423	15.935000	53.762352
-8.341423	15.935000	80.964478
-7.341423	15.935000	98.696060
-6.341423	15.935000	97.745262
-5.341423	15.935000	106.581734
-4.341423	15.935000	112.486649
-3.341423	15.935000	104.297874
-2.341423	15.935000	97.965652
-1.341423	15.935000	93.062485
-0.341423	15.935000	97.531311
0.658577	15.935000	97.763512
1.658577	15.935000	101.291878
2.658577	15.935000	104.278053
3.658577	15.935000	106.334572
4.658577	15.935000	103.170860
5.658577	15.935000	26.378763
6.658577	15.935000	87.430084
7.658577	15.935000	87.300491
8.658577	15.935000	105.443520
9.658577	15.935000	96.373970
10.658577	15.935000	92.843857
11.658577	15.935000	100.169983
12.658577	15.935000	96.934479
13.658577	15.935000	104.846008
14.658577	15.935000	531.466003
15.658577	15.935000	1.228050
16.658577	15.935000	162.438171
17.658577	15.935000	96.924500
18.658577	15.935000	114.369026
19.658577	15.935000	146.083038
20.658577	15.935000	0.897549
21.658577	15.935000	1.799804
22.658577	15.935000	8.233992
23.658577	15.935000	0.639823
24.658577	15.935000	596.577332
