#XList		#YList		#IList		
-39.341423	-21.065000	137.289673
-38.341423	-21.065000	105.635918
-37.341423	-21.065000	76.637344
-36.341423	-21.065000	73.109604
-35.341423	-21.065000	100.306229
-34.341423	-21.065000	472.401917
-33.341423	-21.065000	858.758728
-32.341423	-21.065000	685.951782
-31.341423	-21.065000	903.438721
-30.341423	-21.065000	761.050049
-29.341423	-21.065000	690.236755
-28.341423	-21.065000	583.893005
-27.341423	-21.065000	684.426270
-26.341423	-21.065000	544.104492
-25.341423	-21.065000	230.004364
-24.341423	-21.065000	28.020403
-23.341423	-21.065000	8.247737
-22.341423	-21.065000	25.517742
-21.341423	-21.065000	235.946838
-20.341423	-21.065000	37.363010
-19.341423	-21.065000	6.778256
-18.341423	-21.065000	10.260552
-17.341423	-21.065000	202.604385
-16.341423	-21.065000	1250.989136
-15.341423	-21.065000	1197.058594
-14.341423	-21.065000	1022.569092
-13.341423	-21.065000	726.785461
-12.341423	-21.065000	958.687439
-11.341423	-21.065000	151.379089
-10.341423	-21.065000	0.659381
-9.341423	-21.065000	17.042683
-8.341423	-21.065000	176.950516
-7.341423	-21.065000	367.396149
-6.341423	-21.065000	611.702332
-5.341423	-21.065000	492.156128
-4.341423	-21.065000	127.831802
-3.341423	-21.065000	50.623043
-2.341423	-21.065000	253.002045
-1.341423	-21.065000	230.766479
-0.341423	-21.065000	391.598236
0.658577	-21.065000	344.236847
1.658577	-21.065000	311.213440
2.658577	-21.065000	376.514832
3.658577	-21.065000	418.725037
4.658577	-21.065000	139.611618
5.658577	-21.065000	92.944977
6.658577	-21.065000	2.584096
7.658577	-21.065000	0.000000
8.658577	-21.065000	4.179697
9.658577	-21.065000	107.101944
10.658577	-21.065000	174.450241
11.658577	-21.065000	416.412079
12.658577	-21.065000	441.965057
13.658577	-21.065000	540.946045
14.658577	-21.065000	651.861572
15.658577	-21.065000	322.031891
16.658577	-21.065000	139.747330
17.658577	-21.065000	269.919189
18.658577	-21.065000	552.441223
19.658577	-21.065000	565.413391
20.658577	-21.065000	202.359818
21.658577	-21.065000	26.465219
22.658577	-21.065000	11.585011
23.658577	-21.065000	11.761951
24.658577	-21.065000	0.000000
-39.341423	-20.065000	270.046112
-38.341423	-20.065000	192.862534
-37.341423	-20.065000	83.444389
-36.341423	-20.065000	80.560059
-35.341423	-20.065000	90.693069
-34.341423	-20.065000	259.851074
-33.341423	-20.065000	496.648407
-32.341423	-20.065000	797.547119
-31.341423	-20.065000	933.992615
-30.341423	-20.065000	741.469604
-29.341423	-20.065000	508.661591
-28.341423	-20.065000	552.752380
-27.341423	-20.065000	677.847168
-26.341423	-20.065000	652.432495
-25.341423	-20.065000	683.393616
-24.341423	-20.065000	514.745239
-23.341423	-20.065000	205.424835
-22.341423	-20.065000	70.697647
-21.341423	-20.065000	576.226196
-20.341423	-20.065000	321.400269
-19.341423	-20.065000	162.767883
-18.341423	-20.065000	185.519562
-17.341423	-20.065000	878.995422
-16.341423	-20.065000	1242.571289
-15.341423	-20.065000	1152.055664
-14.341423	-20.065000	993.834900
-13.341423	-20.065000	972.114075
-12.341423	-20.065000	994.246094
-11.341423	-20.065000	72.269272
-10.341423	-20.065000	64.011162
-9.341423	-20.065000	333.854797
-8.341423	-20.065000	351.927216
-7.341423	-20.065000	337.568420
-6.341423	-20.065000	479.836304
-5.341423	-20.065000	381.862335
-4.341423	-20.065000	137.781982
-3.341423	-20.065000	114.462715
-2.341423	-20.065000	642.660522
-1.341423	-20.065000	417.446655
-0.341423	-20.065000	310.962494
0.658577	-20.065000	191.614746
1.658577	-20.065000	222.848404
2.658577	-20.065000	206.872620
3.658577	-20.065000	121.968781
4.658577	-20.065000	96.056404
5.658577	-20.065000	42.000378
6.658577	-20.065000	0.674144
7.658577	-20.065000	1.742992
8.658577	-20.065000	12.671906
9.658577	-20.065000	177.587463
10.658577	-20.065000	153.984528
11.658577	-20.065000	272.517822
12.658577	-20.065000	531.963623
13.658577	-20.065000	637.863953
14.658577	-20.065000	642.661255
15.658577	-20.065000	408.668274
16.658577	-20.065000	449.605621
17.658577	-20.065000	307.016632
18.658577	-20.065000	623.531860
19.658577	-20.065000	561.110107
20.658577	-20.065000	568.763916
21.658577	-20.065000	337.373840
22.658577	-20.065000	5.656851
23.658577	-20.065000	11.433613
24.658577	-20.065000	0.000000
-39.341423	-19.065000	259.849060
-38.341423	-19.065000	124.489693
-37.341423	-19.065000	111.351807
-36.341423	-19.065000	83.705261
-35.341423	-19.065000	197.305328
-34.341423	-19.065000	32.860531
-33.341423	-19.065000	264.134705
-32.341423	-19.065000	748.987793
-31.341423	-19.065000	1011.158630
-30.341423	-19.065000	868.363770
-29.341423	-19.065000	616.513672
-28.341423	-19.065000	604.334167
-27.341423	-19.065000	545.025208
-26.341423	-19.065000	538.083069
-25.341423	-19.065000	568.789490
-24.341423	-19.065000	649.960083
-23.341423	-19.065000	651.272034
-22.341423	-19.065000	564.161194
-21.341423	-19.065000	580.421692
-20.341423	-19.065000	612.360718
-19.341423	-19.065000	663.133362
-18.341423	-19.065000	408.447998
-17.341423	-19.065000	1094.908325
-16.341423	-19.065000	1235.896484
-15.341423	-19.065000	1140.205200
-14.341423	-19.065000	979.601318
-13.341423	-19.065000	979.501404
-12.341423	-19.065000	1002.969666
-11.341423	-19.065000	325.433960
-10.341423	-19.065000	602.611084
-9.341423	-19.065000	460.596832
-8.341423	-19.065000	418.743530
-7.341423	-19.065000	612.224426
-6.341423	-19.065000	544.632385
-5.341423	-19.065000	348.839935
-4.341423	-19.065000	473.384064
-3.341423	-19.065000	736.723206
-2.341423	-19.065000	279.840546
-1.341423	-19.065000	271.022430
-0.341423	-19.065000	423.510010
0.658577	-19.065000	118.595703
1.658577	-19.065000	99.083534
2.658577	-19.065000	176.110291
3.658577	-19.065000	242.351837
4.658577	-19.065000	159.412582
5.658577	-19.065000	13.022523
6.658577	-19.065000	9.366126
7.658577	-19.065000	71.173355
8.658577	-19.065000	215.571411
9.658577	-19.065000	404.948975
10.658577	-19.065000	237.358353
11.658577	-19.065000	483.132202
12.658577	-19.065000	408.133453
13.658577	-19.065000	623.536011
14.658577	-19.065000	405.920135
15.658577	-19.065000	155.077148
16.658577	-19.065000	415.492920
17.658577	-19.065000	134.751358
18.658577	-19.065000	567.876648
19.658577	-19.065000	631.309265
20.658577	-19.065000	596.180481
21.658577	-19.065000	271.159241
22.658577	-19.065000	15.504319
23.658577	-19.065000	9.868699
24.658577	-19.065000	14.317827
-39.341423	-18.065000	442.705750
-38.341423	-18.065000	204.762177
-37.341423	-18.065000	350.258362
-36.341423	-18.065000	224.227478
-35.341423	-18.065000	313.753571
-34.341423	-18.065000	10.495950
-33.341423	-18.065000	215.397095
-32.341423	-18.065000	785.529236
-31.341423	-18.065000	925.528992
-30.341423	-18.065000	953.946716
-29.341423	-18.065000	582.385071
-28.341423	-18.065000	586.302063
-27.341423	-18.065000	561.874084
-26.341423	-18.065000	637.601990
-25.341423	-18.065000	558.651794
-24.341423	-18.065000	613.663757
-23.341423	-18.065000	631.017700
-22.341423	-18.065000	616.628479
-21.341423	-18.065000	573.260620
-20.341423	-18.065000	646.653320
-19.341423	-18.065000	670.750122
-18.341423	-18.065000	531.198181
-17.341423	-18.065000	792.140869
-16.341423	-18.065000	844.483643
-15.341423	-18.065000	1154.269897
-14.341423	-18.065000	1121.524414
-13.341423	-18.065000	1144.582520
-12.341423	-18.065000	849.508179
-11.341423	-18.065000	755.349670
-10.341423	-18.065000	657.701599
-9.341423	-18.065000	466.282257
-8.341423	-18.065000	485.872223
-7.341423	-18.065000	617.336487
-6.341423	-18.065000	584.617615
-5.341423	-18.065000	261.038666
-4.341423	-18.065000	432.497589
-3.341423	-18.065000	626.210266
-2.341423	-18.065000	381.580292
-1.341423	-18.065000	272.552124
-0.341423	-18.065000	247.412598
0.658577	-18.065000	119.569283
1.658577	-18.065000	124.610481
2.658577	-18.065000	334.801941
3.658577	-18.065000	156.045242
4.658577	-18.065000	610.795593
5.658577	-18.065000	182.108200
6.658577	-18.065000	381.014008
7.658577	-18.065000	836.707397
8.658577	-18.065000	895.249451
9.658577	-18.065000	503.061951
10.658577	-18.065000	547.812134
11.658577	-18.065000	723.201172
12.658577	-18.065000	660.891052
13.658577	-18.065000	599.836121
14.658577	-18.065000	447.847748
15.658577	-18.065000	420.398315
16.658577	-18.065000	510.415405
17.658577	-18.065000	427.060242
18.658577	-18.065000	443.839874
19.658577	-18.065000	239.335266
20.658577	-18.065000	39.740566
21.658577	-18.065000	213.997452
22.658577	-18.065000	707.550598
23.658577	-18.065000	587.405212
24.658577	-18.065000	395.834717
-39.341423	-17.065000	485.196259
-38.341423	-17.065000	607.023560
-37.341423	-17.065000	1037.853516
-36.341423	-17.065000	77.335724
-35.341423	-17.065000	20.394831
-34.341423	-17.065000	12.885554
-33.341423	-17.065000	32.887905
-32.341423	-17.065000	408.489410
-31.341423	-17.065000	554.439758
-30.341423	-17.065000	596.169922
-29.341423	-17.065000	570.712830
-28.341423	-17.065000	557.766968
-27.341423	-17.065000	518.765686
-26.341423	-17.065000	500.940430
-25.341423	-17.065000	559.104980
-24.341423	-17.065000	619.011047
-23.341423	-17.065000	639.508728
-22.341423	-17.065000	622.835144
-21.341423	-17.065000	698.061035
-20.341423	-17.065000	182.556717
-19.341423	-17.065000	374.601105
-18.341423	-17.065000	56.516335
-17.341423	-17.065000	477.197449
-16.341423	-17.065000	890.052856
-15.341423	-17.065000	1190.958740
-14.341423	-17.065000	1235.702148
-13.341423	-17.065000	943.733398
-12.341423	-17.065000	977.908508
-11.341423	-17.065000	630.965027
-10.341423	-17.065000	674.374451
-9.341423	-17.065000	528.347778
-8.341423	-17.065000	584.558350
-7.341423	-17.065000	132.065125
-6.341423	-17.065000	908.236450
-5.341423	-17.065000	833.588562
-4.341423	-17.065000	340.846039
-3.341423	-17.065000	332.149078
-2.341423	-17.065000	247.431198
-1.341423	-17.065000	503.469696
-0.341423	-17.065000	154.756943
0.658577	-17.065000	214.599075
1.658577	-17.065000	191.959320
2.658577	-17.065000	165.373093
3.658577	-17.065000	108.755692
4.658577	-17.065000	508.688202
5.658577	-17.065000	74.494568
6.658577	-17.065000	424.431671
7.658577	-17.065000	691.017883
8.658577	-17.065000	488.607910
9.658577	-17.065000	515.694031
10.658577	-17.065000	506.544495
11.658577	-17.065000	530.021973
12.658577	-17.065000	606.439392
13.658577	-17.065000	538.587463
14.658577	-17.065000	361.496643
15.658577	-17.065000	770.359253
16.658577	-17.065000	235.986298
17.658577	-17.065000	123.884544
18.658577	-17.065000	95.093636
19.658577	-17.065000	198.295700
20.658577	-17.065000	59.786091
21.658577	-17.065000	345.985229
22.658577	-17.065000	417.192444
23.658577	-17.065000	462.936310
24.658577	-17.065000	645.940918
-39.341423	-16.065000	318.220093
-38.341423	-16.065000	444.733154
-37.341423	-16.065000	273.922058
-36.341423	-16.065000	103.436501
-35.341423	-16.065000	211.625275
-34.341423	-16.065000	197.571213
-33.341423	-16.065000	427.922913
-32.341423	-16.065000	871.587341
-31.341423	-16.065000	557.640381
-30.341423	-16.065000	503.745605
-29.341423	-16.065000	589.592407
-28.341423	-16.065000	552.774841
-27.341423	-16.065000	559.191650
-26.341423	-16.065000	517.668579
-25.341423	-16.065000	573.801208
-24.341423	-16.065000	606.097778
-23.341423	-16.065000	631.090881
-22.341423	-16.065000	623.958679
-21.341423	-16.065000	432.063843
-20.341423	-16.065000	73.745911
-19.341423	-16.065000	29.329048
-18.341423	-16.065000	48.435551
-17.341423	-16.065000	210.048325
-16.341423	-16.065000	809.812012
-15.341423	-16.065000	1024.056641
-14.341423	-16.065000	1289.514771
-13.341423	-16.065000	1167.513916
-12.341423	-16.065000	779.337158
-11.341423	-16.065000	665.872192
-10.341423	-16.065000	454.252960
-9.341423	-16.065000	581.047180
-8.341423	-16.065000	228.028244
-7.341423	-16.065000	306.247803
-6.341423	-16.065000	607.639465
-5.341423	-16.065000	889.138428
-4.341423	-16.065000	425.218842
-3.341423	-16.065000	120.352333
-2.341423	-16.065000	104.443558
-1.341423	-16.065000	290.526367
-0.341423	-16.065000	538.425720
0.658577	-16.065000	418.031372
1.658577	-16.065000	180.898590
2.658577	-16.065000	46.618332
3.658577	-16.065000	69.436172
4.658577	-16.065000	100.810181
5.658577	-16.065000	456.127441
6.658577	-16.065000	536.571533
7.658577	-16.065000	423.146576
8.658577	-16.065000	412.242065
9.658577	-16.065000	488.881409
10.658577	-16.065000	567.235229
11.658577	-16.065000	829.747009
12.658577	-16.065000	813.774048
13.658577	-16.065000	98.826202
14.658577	-16.065000	196.673798
15.658577	-16.065000	544.280334
16.658577	-16.065000	434.071838
17.658577	-16.065000	214.404816
18.658577	-16.065000	153.672287
19.658577	-16.065000	388.859711
20.658577	-16.065000	191.371979
21.658577	-16.065000	429.273254
22.658577	-16.065000	402.245911
23.658577	-16.065000	569.854614
24.658577	-16.065000	393.080444
-39.341423	-15.065000	83.032646
-38.341423	-15.065000	32.293999
-37.341423	-15.065000	111.315346
-36.341423	-15.065000	717.125000
-35.341423	-15.065000	1085.130981
-34.341423	-15.065000	1046.066895
-33.341423	-15.065000	1005.704407
-32.341423	-15.065000	1040.242798
-31.341423	-15.065000	564.873230
-30.341423	-15.065000	463.257629
-29.341423	-15.065000	569.050476
-28.341423	-15.065000	458.141907
-27.341423	-15.065000	547.512695
-26.341423	-15.065000	507.028534
-25.341423	-15.065000	578.293518
-24.341423	-15.065000	590.254333
-23.341423	-15.065000	546.058411
-22.341423	-15.065000	544.993286
-21.341423	-15.065000	435.779694
-20.341423	-15.065000	64.118713
-19.341423	-15.065000	22.416328
-18.341423	-15.065000	699.269226
-17.341423	-15.065000	845.015686
-16.341423	-15.065000	864.018311
-15.341423	-15.065000	939.518799
-14.341423	-15.065000	944.309387
-13.341423	-15.065000	858.768127
-12.341423	-15.065000	550.642212
-11.341423	-15.065000	281.974731
-10.341423	-15.065000	448.852509
-9.341423	-15.065000	435.250610
-8.341423	-15.065000	361.966949
-7.341423	-15.065000	333.053131
-6.341423	-15.065000	353.149536
-5.341423	-15.065000	423.964783
-4.341423	-15.065000	198.512833
-3.341423	-15.065000	140.425659
-2.341423	-15.065000	97.953377
-1.341423	-15.065000	130.306274
-0.341423	-15.065000	689.058044
0.658577	-15.065000	525.209839
1.658577	-15.065000	227.817917
2.658577	-15.065000	191.038803
3.658577	-15.065000	102.684471
4.658577	-15.065000	408.164734
5.658577	-15.065000	654.890625
6.658577	-15.065000	713.223999
7.658577	-15.065000	400.930115
8.658577	-15.065000	486.266052
9.658577	-15.065000	563.968445
10.658577	-15.065000	557.265503
11.658577	-15.065000	681.939087
12.658577	-15.065000	76.495705
13.658577	-15.065000	51.929642
14.658577	-15.065000	208.036804
15.658577	-15.065000	61.974445
16.658577	-15.065000	334.992493
17.658577	-15.065000	346.239807
18.658577	-15.065000	326.733185
19.658577	-15.065000	114.031815
20.658577	-15.065000	124.921829
21.658577	-15.065000	435.106049
22.658577	-15.065000	705.334595
23.658577	-15.065000	430.963531
24.658577	-15.065000	237.188248
-39.341423	-14.065000	46.271893
-38.341423	-14.065000	183.920456
-37.341423	-14.065000	1007.747864
-36.341423	-14.065000	1014.137024
-35.341423	-14.065000	886.748718
-34.341423	-14.065000	764.735413
-33.341423	-14.065000	831.976929
-32.341423	-14.065000	1001.526489
-31.341423	-14.065000	741.690430
-30.341423	-14.065000	545.412720
-29.341423	-14.065000	427.332550
-28.341423	-14.065000	432.125793
-27.341423	-14.065000	634.245789
-26.341423	-14.065000	614.202332
-25.341423	-14.065000	553.508484
-24.341423	-14.065000	525.714050
-23.341423	-14.065000	580.190552
-22.341423	-14.065000	551.215271
-21.341423	-14.065000	170.842728
-20.341423	-14.065000	373.837830
-19.341423	-14.065000	36.396244
-18.341423	-14.065000	352.054077
-17.341423	-14.065000	305.393585
-16.341423	-14.065000	473.057373
-15.341423	-14.065000	1036.766235
-14.341423	-14.065000	835.760071
-13.341423	-14.065000	285.538055
-12.341423	-14.065000	433.190430
-11.341423	-14.065000	312.335358
-10.341423	-14.065000	331.492401
-9.341423	-14.065000	204.099823
-8.341423	-14.065000	157.593002
-7.341423	-14.065000	206.853424
-6.341423	-14.065000	280.738403
-5.341423	-14.065000	312.744843
-4.341423	-14.065000	123.819229
-3.341423	-14.065000	124.691055
-2.341423	-14.065000	100.558212
-1.341423	-14.065000	133.333694
-0.341423	-14.065000	329.581818
0.658577	-14.065000	409.038971
1.658577	-14.065000	312.092560
2.658577	-14.065000	117.140381
3.658577	-14.065000	99.284714
4.658577	-14.065000	137.766403
5.658577	-14.065000	308.740173
6.658577	-14.065000	699.661255
7.658577	-14.065000	635.023865
8.658577	-14.065000	369.051819
9.658577	-14.065000	669.538818
10.658577	-14.065000	455.672852
11.658577	-14.065000	34.559029
12.658577	-14.065000	32.528538
13.658577	-14.065000	354.919281
14.658577	-14.065000	115.061142
15.658577	-14.065000	11.123281
16.658577	-14.065000	13.266230
17.658577	-14.065000	42.958122
18.658577	-14.065000	121.748703
19.658577	-14.065000	173.991089
20.658577	-14.065000	326.857666
21.658577	-14.065000	463.833984
22.658577	-14.065000	464.026550
23.658577	-14.065000	294.696594
24.658577	-14.065000	136.856720
-39.341423	-13.065000	571.908203
-38.341423	-13.065000	849.802063
-37.341423	-13.065000	1003.548828
-36.341423	-13.065000	944.090454
-35.341423	-13.065000	836.840088
-34.341423	-13.065000	825.560303
-33.341423	-13.065000	884.981567
-32.341423	-13.065000	896.296997
-31.341423	-13.065000	848.809631
-30.341423	-13.065000	696.892334
-29.341423	-13.065000	594.050842
-28.341423	-13.065000	591.519531
-27.341423	-13.065000	628.059753
-26.341423	-13.065000	641.773438
-25.341423	-13.065000	616.970947
-24.341423	-13.065000	531.679993
-23.341423	-13.065000	552.990784
-22.341423	-13.065000	627.016113
-21.341423	-13.065000	296.890320
-20.341423	-13.065000	310.342346
-19.341423	-13.065000	216.930634
-18.341423	-13.065000	70.568336
-17.341423	-13.065000	46.694546
-16.341423	-13.065000	68.108902
-15.341423	-13.065000	244.227539
-14.341423	-13.065000	64.785698
-13.341423	-13.065000	26.747526
-12.341423	-13.065000	148.942886
-11.341423	-13.065000	327.531006
-10.341423	-13.065000	290.505280
-9.341423	-13.065000	184.442688
-8.341423	-13.065000	161.161133
-7.341423	-13.065000	210.312851
-6.341423	-13.065000	293.580475
-5.341423	-13.065000	247.855469
-4.341423	-13.065000	178.044479
-3.341423	-13.065000	221.783600
-2.341423	-13.065000	224.533798
-1.341423	-13.065000	268.114044
-0.341423	-13.065000	523.392944
0.658577	-13.065000	397.335846
1.658577	-13.065000	300.949097
2.658577	-13.065000	141.758163
3.658577	-13.065000	110.214676
4.658577	-13.065000	157.569260
5.658577	-13.065000	131.672455
6.658577	-13.065000	310.413239
7.658577	-13.065000	838.843384
8.658577	-13.065000	619.230042
9.658577	-13.065000	522.588928
10.658577	-13.065000	34.132912
11.658577	-13.065000	7.280074
12.658577	-13.065000	47.280640
13.658577	-13.065000	144.139130
14.658577	-13.065000	326.149689
15.658577	-13.065000	68.846245
16.658577	-13.065000	198.277832
17.658577	-13.065000	459.475342
18.658577	-13.065000	387.969360
19.658577	-13.065000	458.318024
20.658577	-13.065000	638.101379
21.658577	-13.065000	374.281372
22.658577	-13.065000	427.385406
23.658577	-13.065000	410.502014
24.658577	-13.065000	211.333755
-39.341423	-12.065000	806.498962
-38.341423	-12.065000	932.300842
-37.341423	-12.065000	941.892395
-36.341423	-12.065000	981.972534
-35.341423	-12.065000	826.712341
-34.341423	-12.065000	819.283325
-33.341423	-12.065000	797.504272
-32.341423	-12.065000	805.415405
-31.341423	-12.065000	710.907227
-30.341423	-12.065000	758.623779
-29.341423	-12.065000	839.717102
-28.341423	-12.065000	774.575500
-27.341423	-12.065000	563.887146
-26.341423	-12.065000	720.898682
-25.341423	-12.065000	687.316772
-24.341423	-12.065000	670.037292
-23.341423	-12.065000	633.501953
-22.341423	-12.065000	651.112793
-21.341423	-12.065000	147.035049
-20.341423	-12.065000	93.255531
-19.341423	-12.065000	158.533920
-18.341423	-12.065000	66.883224
-17.341423	-12.065000	34.180557
-16.341423	-12.065000	49.059616
-15.341423	-12.065000	126.550415
-14.341423	-12.065000	39.713936
-13.341423	-12.065000	97.426308
-12.341423	-12.065000	451.748901
-11.341423	-12.065000	286.735046
-10.341423	-12.065000	312.464020
-9.341423	-12.065000	184.496002
-8.341423	-12.065000	187.514740
-7.341423	-12.065000	299.785706
-6.341423	-12.065000	390.531036
-5.341423	-12.065000	465.380096
-4.341423	-12.065000	149.347763
-3.341423	-12.065000	344.187042
-2.341423	-12.065000	367.739532
-1.341423	-12.065000	341.795624
-0.341423	-12.065000	381.412231
0.658577	-12.065000	223.990051
1.658577	-12.065000	148.840073
2.658577	-12.065000	117.703690
3.658577	-12.065000	92.558617
4.658577	-12.065000	111.328506
5.658577	-12.065000	159.354248
6.658577	-12.065000	317.899872
7.658577	-12.065000	484.839935
8.658577	-12.065000	425.394989
9.658577	-12.065000	32.760170
10.658577	-12.065000	7.157889
11.658577	-12.065000	13.509358
12.658577	-12.065000	249.011063
13.658577	-12.065000	83.528374
14.658577	-12.065000	376.129486
15.658577	-12.065000	652.734192
16.658577	-12.065000	328.728241
17.658577	-12.065000	563.779785
18.658577	-12.065000	490.541138
19.658577	-12.065000	304.062836
20.658577	-12.065000	187.085770
21.658577	-12.065000	242.750717
22.658577	-12.065000	235.947113
23.658577	-12.065000	385.088898
24.658577	-12.065000	313.959106
-39.341423	-11.065000	1068.665894
-38.341423	-11.065000	948.066589
-37.341423	-11.065000	955.093811
-36.341423	-11.065000	774.539795
-35.341423	-11.065000	813.973145
-34.341423	-11.065000	753.213135
-33.341423	-11.065000	783.149109
-32.341423	-11.065000	715.343201
-31.341423	-11.065000	750.542297
-30.341423	-11.065000	896.711914
-29.341423	-11.065000	870.771057
-28.341423	-11.065000	886.055908
-27.341423	-11.065000	776.984741
-26.341423	-11.065000	946.403564
-25.341423	-11.065000	706.995117
-24.341423	-11.065000	744.294067
-23.341423	-11.065000	633.726746
-22.341423	-11.065000	572.620972
-21.341423	-11.065000	199.442657
-20.341423	-11.065000	351.764160
-19.341423	-11.065000	354.534302
-18.341423	-11.065000	177.128189
-17.341423	-11.065000	99.722153
-16.341423	-11.065000	103.468681
-15.341423	-11.065000	302.598022
-14.341423	-11.065000	172.723755
-13.341423	-11.065000	110.278824
-12.341423	-11.065000	512.897583
-11.341423	-11.065000	393.441895
-10.341423	-11.065000	321.822876
-9.341423	-11.065000	119.383461
-8.341423	-11.065000	61.088020
-7.341423	-11.065000	227.001678
-6.341423	-11.065000	363.259613
-5.341423	-11.065000	164.738876
-4.341423	-11.065000	165.262253
-3.341423	-11.065000	134.593552
-2.341423	-11.065000	141.316925
-1.341423	-11.065000	260.764648
-0.341423	-11.065000	202.863220
0.658577	-11.065000	195.684357
1.658577	-11.065000	310.404175
2.658577	-11.065000	346.307739
3.658577	-11.065000	53.991379
4.658577	-11.065000	51.644970
5.658577	-11.065000	127.059746
6.658577	-11.065000	183.857498
7.658577	-11.065000	511.762299
8.658577	-11.065000	488.897858
9.658577	-11.065000	19.400433
10.658577	-11.065000	0.000000
11.658577	-11.065000	2.854475
12.658577	-11.065000	37.348362
13.658577	-11.065000	375.695160
14.658577	-11.065000	582.923828
15.658577	-11.065000	655.989136
16.658577	-11.065000	335.846100
17.658577	-11.065000	257.097717
18.658577	-11.065000	155.401810
19.658577	-11.065000	108.855103
20.658577	-11.065000	71.476891
21.658577	-11.065000	77.504745
22.658577	-11.065000	118.245293
23.658577	-11.065000	244.356720
24.658577	-11.065000	361.626740
-39.341423	-10.065000	929.363525
-38.341423	-10.065000	897.773132
-37.341423	-10.065000	854.236450
-36.341423	-10.065000	758.773071
-35.341423	-10.065000	790.668518
-34.341423	-10.065000	788.912598
-33.341423	-10.065000	829.196838
-32.341423	-10.065000	962.204285
-31.341423	-10.065000	887.160156
-30.341423	-10.065000	822.671753
-29.341423	-10.065000	898.875183
-28.341423	-10.065000	855.205811
-27.341423	-10.065000	929.714722
-26.341423	-10.065000	872.449341
-25.341423	-10.065000	657.916260
-24.341423	-10.065000	633.249023
-23.341423	-10.065000	573.292664
-22.341423	-10.065000	59.469810
-21.341423	-10.065000	461.417450
-20.341423	-10.065000	407.961823
-19.341423	-10.065000	151.060074
-18.341423	-10.065000	215.317307
-17.341423	-10.065000	239.369705
-16.341423	-10.065000	273.058014
-15.341423	-10.065000	391.842804
-14.341423	-10.065000	464.070129
-13.341423	-10.065000	169.111008
-12.341423	-10.065000	617.288086
-11.341423	-10.065000	485.557953
-10.341423	-10.065000	294.624329
-9.341423	-10.065000	31.760883
-8.341423	-10.065000	76.548332
-7.341423	-10.065000	66.285545
-6.341423	-10.065000	51.372547
-5.341423	-10.065000	52.309296
-4.341423	-10.065000	66.780014
-3.341423	-10.065000	60.076725
-2.341423	-10.065000	116.560143
-1.341423	-10.065000	180.375458
-0.341423	-10.065000	294.971954
0.658577	-10.065000	403.683624
1.658577	-10.065000	386.392059
2.658577	-10.065000	154.662201
3.658577	-10.065000	41.752434
4.658577	-10.065000	62.864746
5.658577	-10.065000	194.918411
6.658577	-10.065000	681.795410
7.658577	-10.065000	650.156494
8.658577	-10.065000	46.553150
9.658577	-10.065000	1.253667
10.658577	-10.065000	0.000000
11.658577	-10.065000	1.873304
12.658577	-10.065000	67.228966
13.658577	-10.065000	230.122360
14.658577	-10.065000	166.858292
15.658577	-10.065000	477.756989
16.658577	-10.065000	389.808868
17.658577	-10.065000	123.446419
18.658577	-10.065000	107.733231
19.658577	-10.065000	123.260460
20.658577	-10.065000	149.546799
21.658577	-10.065000	115.079620
22.658577	-10.065000	88.874939
23.658577	-10.065000	166.593491
24.658577	-10.065000	180.947281
-39.341423	-9.065000	891.222717
-38.341423	-9.065000	716.603577
-37.341423	-9.065000	724.376892
-36.341423	-9.065000	845.022095
-35.341423	-9.065000	923.597229
-34.341423	-9.065000	987.817261
-33.341423	-9.065000	931.616150
-32.341423	-9.065000	997.965210
-31.341423	-9.065000	904.641174
-30.341423	-9.065000	877.118652
-29.341423	-9.065000	875.577332
-28.341423	-9.065000	778.791626
-27.341423	-9.065000	931.759094
-26.341423	-9.065000	741.836487
-25.341423	-9.065000	307.307220
-24.341423	-9.065000	61.432549
-23.341423	-9.065000	30.288067
-22.341423	-9.065000	11.318748
-21.341423	-9.065000	22.757872
-20.341423	-9.065000	39.028435
-19.341423	-9.065000	289.407471
-18.341423	-9.065000	140.026917
-17.341423	-9.065000	251.542099
-16.341423	-9.065000	530.349060
-15.341423	-9.065000	725.734741
-14.341423	-9.065000	583.981201
-13.341423	-9.065000	325.743591
-12.341423	-9.065000	688.655640
-11.341423	-9.065000	983.474365
-10.341423	-9.065000	799.187195
-9.341423	-9.065000	266.370361
-8.341423	-9.065000	809.893982
-7.341423	-9.065000	142.609787
-6.341423	-9.065000	36.191742
-5.341423	-9.065000	24.982731
-4.341423	-9.065000	56.504093
-3.341423	-9.065000	74.492386
-2.341423	-9.065000	47.028271
-1.341423	-9.065000	155.700577
-0.341423	-9.065000	351.008240
0.658577	-9.065000	321.033813
1.658577	-9.065000	100.816910
2.658577	-9.065000	50.223412
3.658577	-9.065000	72.415787
4.658577	-9.065000	169.838348
5.658577	-9.065000	555.307007
6.658577	-9.065000	651.370605
7.658577	-9.065000	723.056702
8.658577	-9.065000	29.774616
9.658577	-9.065000	12.290423
10.658577	-9.065000	0.000000
11.658577	-9.065000	3.939123
12.658577	-9.065000	248.702515
13.658577	-9.065000	217.602264
14.658577	-9.065000	176.736023
15.658577	-9.065000	94.314171
16.658577	-9.065000	209.831253
17.658577	-9.065000	292.628998
18.658577	-9.065000	111.060913
19.658577	-9.065000	115.899612
20.658577	-9.065000	105.037308
21.658577	-9.065000	113.633781
22.658577	-9.065000	154.474396
23.658577	-9.065000	171.976089
24.658577	-9.065000	99.400085
-39.341423	-8.065000	807.689148
-38.341423	-8.065000	656.274048
-37.341423	-8.065000	784.365601
-36.341423	-8.065000	946.032715
-35.341423	-8.065000	952.170044
-34.341423	-8.065000	1004.282959
-33.341423	-8.065000	1012.442688
-32.341423	-8.065000	1093.479614
-31.341423	-8.065000	816.857483
-30.341423	-8.065000	792.661987
-29.341423	-8.065000	760.730164
-28.341423	-8.065000	802.451294
-27.341423	-8.065000	991.932068
-26.341423	-8.065000	636.991150
-25.341423	-8.065000	836.117310
-24.341423	-8.065000	241.131668
-23.341423	-8.065000	21.596312
-22.341423	-8.065000	23.896181
-21.341423	-8.065000	102.010292
-20.341423	-8.065000	112.926514
-19.341423	-8.065000	317.628540
-18.341423	-8.065000	362.494873
-17.341423	-8.065000	774.712280
-16.341423	-8.065000	634.901733
-15.341423	-8.065000	359.870209
-14.341423	-8.065000	354.911499
-13.341423	-8.065000	480.690582
-12.341423	-8.065000	531.989014
-11.341423	-8.065000	647.183411
-10.341423	-8.065000	509.867035
-9.341423	-8.065000	760.331970
-8.341423	-8.065000	651.315735
-7.341423	-8.065000	52.612053
-6.341423	-8.065000	36.659992
-5.341423	-8.065000	69.515762
-4.341423	-8.065000	47.319416
-3.341423	-8.065000	85.541191
-2.341423	-8.065000	57.276394
-1.341423	-8.065000	67.485184
-0.341423	-8.065000	108.296524
0.658577	-8.065000	293.089233
1.658577	-8.065000	69.168991
2.658577	-8.065000	94.734947
3.658577	-8.065000	265.686279
4.658577	-8.065000	477.942230
5.658577	-8.065000	599.352417
6.658577	-8.065000	710.402039
7.658577	-8.065000	634.282654
8.658577	-8.065000	26.061066
9.658577	-8.065000	4.845205
10.658577	-8.065000	2.030869
11.658577	-8.065000	3.839847
12.658577	-8.065000	58.975410
13.658577	-8.065000	255.993011
14.658577	-8.065000	253.564850
15.658577	-8.065000	304.011597
16.658577	-8.065000	319.060760
17.658577	-8.065000	322.336334
18.658577	-8.065000	153.371307
19.658577	-8.065000	125.239990
20.658577	-8.065000	158.669846
21.658577	-8.065000	86.909546
22.658577	-8.065000	80.610474
23.658577	-8.065000	278.374817
24.658577	-8.065000	39.699043
-39.341423	-7.065000	819.379822
-38.341423	-7.065000	638.413879
-37.341423	-7.065000	848.736694
-36.341423	-7.065000	932.683777
-35.341423	-7.065000	994.419067
-34.341423	-7.065000	1069.538696
-33.341423	-7.065000	1063.686279
-32.341423	-7.065000	965.258606
-31.341423	-7.065000	850.714905
-30.341423	-7.065000	757.794434
-29.341423	-7.065000	776.338684
-28.341423	-7.065000	808.352417
-27.341423	-7.065000	296.618469
-26.341423	-7.065000	867.645691
-25.341423	-7.065000	909.305664
-24.341423	-7.065000	367.388092
-23.341423	-7.065000	180.656555
-22.341423	-7.065000	80.630943
-21.341423	-7.065000	108.039925
-20.341423	-7.065000	220.965714
-19.341423	-7.065000	609.501526
-18.341423	-7.065000	238.036484
-17.341423	-7.065000	797.873352
-16.341423	-7.065000	685.259216
-15.341423	-7.065000	384.833344
-14.341423	-7.065000	531.997742
-13.341423	-7.065000	503.500031
-12.341423	-7.065000	505.262726
-11.341423	-7.065000	574.304749
-10.341423	-7.065000	629.849670
-9.341423	-7.065000	734.211914
-8.341423	-7.065000	928.696106
-7.341423	-7.065000	41.472160
-6.341423	-7.065000	15.930658
-5.341423	-7.065000	10.017162
-4.341423	-7.065000	20.903994
-3.341423	-7.065000	325.259399
-2.341423	-7.065000	408.178802
-1.341423	-7.065000	14.973077
-0.341423	-7.065000	15.248556
0.658577	-7.065000	11.786783
1.658577	-7.065000	22.046188
2.658577	-7.065000	367.234497
3.658577	-7.065000	384.051697
4.658577	-7.065000	483.480011
5.658577	-7.065000	685.077698
6.658577	-7.065000	257.977844
7.658577	-7.065000	105.262863
8.658577	-7.065000	13.708847
9.658577	-7.065000	4.355231
10.658577	-7.065000	181.371780
11.658577	-7.065000	38.169468
12.658577	-7.065000	63.310329
13.658577	-7.065000	569.865173
14.658577	-7.065000	817.240906
15.658577	-7.065000	665.524902
16.658577	-7.065000	295.278992
17.658577	-7.065000	224.310547
18.658577	-7.065000	225.600449
19.658577	-7.065000	169.741196
20.658577	-7.065000	347.050720
21.658577	-7.065000	252.315643
22.658577	-7.065000	260.482239
23.658577	-7.065000	434.329651
24.658577	-7.065000	203.453781
-39.341423	-6.065000	712.939209
-38.341423	-6.065000	764.463684
-37.341423	-6.065000	836.549500
-36.341423	-6.065000	880.359741
-35.341423	-6.065000	848.994507
-34.341423	-6.065000	956.875305
-33.341423	-6.065000	967.268188
-32.341423	-6.065000	1025.671997
-31.341423	-6.065000	809.087036
-30.341423	-6.065000	820.429199
-29.341423	-6.065000	893.716919
-28.341423	-6.065000	991.606995
-27.341423	-6.065000	413.701843
-26.341423	-6.065000	896.622009
-25.341423	-6.065000	1067.865845
-24.341423	-6.065000	1029.508423
-23.341423	-6.065000	382.812622
-22.341423	-6.065000	775.346497
-21.341423	-6.065000	712.617188
-20.341423	-6.065000	268.952881
-19.341423	-6.065000	18.241690
-18.341423	-6.065000	16.365772
-17.341423	-6.065000	138.632492
-16.341423	-6.065000	609.228088
-15.341423	-6.065000	830.194458
-14.341423	-6.065000	700.709900
-13.341423	-6.065000	592.532410
-12.341423	-6.065000	675.089355
-11.341423	-6.065000	652.893494
-10.341423	-6.065000	745.937195
-9.341423	-6.065000	779.253662
-8.341423	-6.065000	1000.996765
-7.341423	-6.065000	674.097473
-6.341423	-6.065000	372.419250
-5.341423	-6.065000	45.181042
-4.341423	-6.065000	6.372738
-3.341423	-6.065000	42.886410
-2.341423	-6.065000	191.512299
-1.341423	-6.065000	39.196964
-0.341423	-6.065000	6.691418
0.658577	-6.065000	6.496605
1.658577	-6.065000	7.230734
2.658577	-6.065000	231.373749
3.658577	-6.065000	610.467102
4.658577	-6.065000	626.008179
5.658577	-6.065000	640.201172
6.658577	-6.065000	557.263489
7.658577	-6.065000	433.133453
8.658577	-6.065000	19.881731
9.658577	-6.065000	31.334101
10.658577	-6.065000	171.000748
11.658577	-6.065000	404.249603
12.658577	-6.065000	571.141968
13.658577	-6.065000	643.633850
14.658577	-6.065000	579.986877
15.658577	-6.065000	547.171692
16.658577	-6.065000	657.427307
17.658577	-6.065000	199.854095
18.658577	-6.065000	168.880371
19.658577	-6.065000	183.988525
20.658577	-6.065000	129.466095
21.658577	-6.065000	278.576294
22.658577	-6.065000	229.510040
23.658577	-6.065000	347.618683
24.658577	-6.065000	230.186691
-39.341423	-5.065000	71.616516
-38.341423	-5.065000	319.484253
-37.341423	-5.065000	857.113953
-36.341423	-5.065000	788.866760
-35.341423	-5.065000	697.059570
-34.341423	-5.065000	836.854736
-33.341423	-5.065000	1081.843506
-32.341423	-5.065000	1235.189087
-31.341423	-5.065000	1099.505249
-30.341423	-5.065000	1047.092407
-29.341423	-5.065000	898.101135
-28.341423	-5.065000	783.555542
-27.341423	-5.065000	775.510559
-26.341423	-5.065000	666.717896
-25.341423	-5.065000	669.540894
-24.341423	-5.065000	1081.403564
-23.341423	-5.065000	812.826904
-22.341423	-5.065000	618.856873
-21.341423	-5.065000	661.832947
-20.341423	-5.065000	52.254021
-19.341423	-5.065000	11.789769
-18.341423	-5.065000	6.284381
-17.341423	-5.065000	38.147087
-16.341423	-5.065000	441.983612
-15.341423	-5.065000	599.172668
-14.341423	-5.065000	786.612183
-13.341423	-5.065000	914.820251
-12.341423	-5.065000	816.847717
-11.341423	-5.065000	1000.183716
-10.341423	-5.065000	843.422974
-9.341423	-5.065000	976.553101
-8.341423	-5.065000	670.864746
-7.341423	-5.065000	741.283936
-6.341423	-5.065000	774.918945
-5.341423	-5.065000	445.932434
-4.341423	-5.065000	8.945415
-3.341423	-5.065000	1.727375
-2.341423	-5.065000	38.548737
-1.341423	-5.065000	87.979073
-0.341423	-5.065000	221.435425
0.658577	-5.065000	279.604767
1.658577	-5.065000	59.021858
2.658577	-5.065000	34.466049
3.658577	-5.065000	54.829319
4.658577	-5.065000	480.878937
5.658577	-5.065000	595.450256
6.658577	-5.065000	335.159790
7.658577	-5.065000	459.107910
8.658577	-5.065000	54.147820
9.658577	-5.065000	151.504837
10.658577	-5.065000	535.065857
11.658577	-5.065000	402.015350
12.658577	-5.065000	774.183838
13.658577	-5.065000	806.016052
14.658577	-5.065000	720.261719
15.658577	-5.065000	635.688721
16.658577	-5.065000	592.378479
17.658577	-5.065000	373.414459
18.658577	-5.065000	234.766678
19.658577	-5.065000	213.925232
20.658577	-5.065000	221.807343
21.658577	-5.065000	119.412682
22.658577	-5.065000	103.740707
23.658577	-5.065000	170.389679
24.658577	-5.065000	105.809906
-39.341423	-4.065000	7.635533
-38.341423	-4.065000	132.568878
-37.341423	-4.065000	630.232239
-36.341423	-4.065000	411.273499
-35.341423	-4.065000	623.856445
-34.341423	-4.065000	932.562805
-33.341423	-4.065000	1096.704224
-32.341423	-4.065000	613.318848
-31.341423	-4.065000	397.008118
-30.341423	-4.065000	403.218445
-29.341423	-4.065000	199.830627
-28.341423	-4.065000	420.388824
-27.341423	-4.065000	828.546448
-26.341423	-4.065000	841.443542
-25.341423	-4.065000	821.168701
-24.341423	-4.065000	814.157898
-23.341423	-4.065000	538.205200
-22.341423	-4.065000	623.354919
-21.341423	-4.065000	815.786682
-20.341423	-4.065000	453.018158
-19.341423	-4.065000	290.948334
-18.341423	-4.065000	111.112663
-17.341423	-4.065000	64.050751
-16.341423	-4.065000	212.588593
-15.341423	-4.065000	674.606018
-14.341423	-4.065000	678.904480
-13.341423	-4.065000	1015.159363
-12.341423	-4.065000	582.027283
-11.341423	-4.065000	331.613129
-10.341423	-4.065000	468.688110
-9.341423	-4.065000	456.470734
-8.341423	-4.065000	559.276794
-7.341423	-4.065000	580.132385
-6.341423	-4.065000	352.947845
-5.341423	-4.065000	371.168274
-4.341423	-4.065000	23.052217
-3.341423	-4.065000	6.527910
-2.341423	-4.065000	19.625849
-1.341423	-4.065000	69.369293
-0.341423	-4.065000	336.164886
0.658577	-4.065000	467.298401
1.658577	-4.065000	221.689178
2.658577	-4.065000	9.881505
3.658577	-4.065000	22.781828
4.658577	-4.065000	121.099037
5.658577	-4.065000	362.520325
6.658577	-4.065000	619.352112
7.658577	-4.065000	654.292786
8.658577	-4.065000	432.471008
9.658577	-4.065000	688.175781
10.658577	-4.065000	755.195374
11.658577	-4.065000	324.070618
12.658577	-4.065000	820.686829
13.658577	-4.065000	1200.576538
14.658577	-4.065000	944.759460
15.658577	-4.065000	193.668488
16.658577	-4.065000	421.421906
17.658577	-4.065000	664.046021
18.658577	-4.065000	490.569275
19.658577	-4.065000	465.602203
20.658577	-4.065000	303.502441
21.658577	-4.065000	478.785828
22.658577	-4.065000	345.509827
23.658577	-4.065000	260.499847
24.658577	-4.065000	112.719856
-39.341423	-3.065000	0.000000
-38.341423	-3.065000	25.852802
-37.341423	-3.065000	208.209991
-36.341423	-3.065000	381.802216
-35.341423	-3.065000	528.625000
-34.341423	-3.065000	926.662659
-33.341423	-3.065000	588.216919
-32.341423	-3.065000	74.323120
-31.341423	-3.065000	142.342102
-30.341423	-3.065000	1031.800659
-29.341423	-3.065000	65.328781
-28.341423	-3.065000	26.655102
-27.341423	-3.065000	194.908081
-26.341423	-3.065000	766.618164
-25.341423	-3.065000	539.192993
-24.341423	-3.065000	958.609375
-23.341423	-3.065000	938.341492
-22.341423	-3.065000	723.640625
-21.341423	-3.065000	823.499695
-20.341423	-3.065000	300.422577
-19.341423	-3.065000	492.352356
-18.341423	-3.065000	417.010406
-17.341423	-3.065000	479.771179
-16.341423	-3.065000	104.914558
-15.341423	-3.065000	490.472534
-14.341423	-3.065000	824.577209
-13.341423	-3.065000	727.554626
-12.341423	-3.065000	432.999786
-11.341423	-3.065000	277.145782
-10.341423	-3.065000	318.858093
-9.341423	-3.065000	301.205383
-8.341423	-3.065000	315.318207
-7.341423	-3.065000	142.363785
-6.341423	-3.065000	200.228012
-5.341423	-3.065000	363.062439
-4.341423	-3.065000	164.235748
-3.341423	-3.065000	97.977516
-2.341423	-3.065000	458.152008
-1.341423	-3.065000	1043.966064
-0.341423	-3.065000	1167.709473
0.658577	-3.065000	903.086609
1.658577	-3.065000	285.054932
2.658577	-3.065000	34.218361
3.658577	-3.065000	514.721375
4.658577	-3.065000	57.798782
5.658577	-3.065000	238.129639
6.658577	-3.065000	580.280029
7.658577	-3.065000	666.396790
8.658577	-3.065000	618.684509
9.658577	-3.065000	733.619385
10.658577	-3.065000	353.917419
11.658577	-3.065000	383.263092
12.658577	-3.065000	1028.170166
13.658577	-3.065000	1160.840332
14.658577	-3.065000	994.181641
15.658577	-3.065000	355.847076
16.658577	-3.065000	703.624451
17.658577	-3.065000	695.908569
18.658577	-3.065000	633.148438
19.658577	-3.065000	228.969315
20.658577	-3.065000	302.345520
21.658577	-3.065000	342.554565
22.658577	-3.065000	42.917122
23.658577	-3.065000	149.544540
24.658577	-3.065000	240.072876
-39.341423	-2.065000	15.175816
-38.341423	-2.065000	247.095657
-37.341423	-2.065000	429.635193
-36.341423	-2.065000	61.318134
-35.341423	-2.065000	118.894699
-34.341423	-2.065000	135.626892
-33.341423	-2.065000	54.391644
-32.341423	-2.065000	25.901434
-31.341423	-2.065000	312.282043
-30.341423	-2.065000	740.863281
-29.341423	-2.065000	30.104790
-28.341423	-2.065000	9.641817
-27.341423	-2.065000	90.818604
-26.341423	-2.065000	742.999084
-25.341423	-2.065000	865.004028
-24.341423	-2.065000	923.969849
-23.341423	-2.065000	880.332397
-22.341423	-2.065000	714.660339
-21.341423	-2.065000	430.115173
-20.341423	-2.065000	237.920639
-19.341423	-2.065000	371.322418
-18.341423	-2.065000	74.853424
-17.341423	-2.065000	78.401527
-16.341423	-2.065000	291.439697
-15.341423	-2.065000	1109.307739
-14.341423	-2.065000	808.042175
-13.341423	-2.065000	571.988281
-12.341423	-2.065000	385.119263
-11.341423	-2.065000	414.374084
-10.341423	-2.065000	614.974182
-9.341423	-2.065000	347.687408
-8.341423	-2.065000	251.542786
-7.341423	-2.065000	175.959290
-6.341423	-2.065000	242.979279
-5.341423	-2.065000	463.676300
-4.341423	-2.065000	198.254379
-3.341423	-2.065000	217.767776
-2.341423	-2.065000	729.298645
-1.341423	-2.065000	831.707153
-0.341423	-2.065000	1150.080444
0.658577	-2.065000	1229.961426
1.658577	-2.065000	609.598389
2.658577	-2.065000	69.000641
3.658577	-2.065000	309.261536
4.658577	-2.065000	79.347984
5.658577	-2.065000	421.888367
6.658577	-2.065000	819.455078
7.658577	-2.065000	609.632019
8.658577	-2.065000	519.492432
9.658577	-2.065000	295.667023
10.658577	-2.065000	443.126892
11.658577	-2.065000	387.188660
12.658577	-2.065000	636.070129
13.658577	-2.065000	1027.011597
14.658577	-2.065000	957.300903
15.658577	-2.065000	806.866028
16.658577	-2.065000	620.290283
17.658577	-2.065000	548.472961
18.658577	-2.065000	386.309265
19.658577	-2.065000	485.224762
20.658577	-2.065000	358.329102
21.658577	-2.065000	33.043495
22.658577	-2.065000	33.050518
23.658577	-2.065000	126.585403
24.658577	-2.065000	130.029114
-39.341423	-1.065000	5.862945
-38.341423	-1.065000	29.390543
-37.341423	-1.065000	193.608566
-36.341423	-1.065000	61.985058
-35.341423	-1.065000	76.511070
-34.341423	-1.065000	53.638405
-33.341423	-1.065000	322.292450
-32.341423	-1.065000	222.125046
-31.341423	-1.065000	225.593979
-30.341423	-1.065000	120.947830
-29.341423	-1.065000	15.665913
-28.341423	-1.065000	1.898699
-27.341423	-1.065000	9.911999
-26.341423	-1.065000	270.344513
-25.341423	-1.065000	727.992920
-24.341423	-1.065000	831.467773
-23.341423	-1.065000	382.824768
-22.341423	-1.065000	663.653381
-21.341423	-1.065000	265.500427
-20.341423	-1.065000	111.078613
-19.341423	-1.065000	73.969757
-18.341423	-1.065000	84.791412
-17.341423	-1.065000	197.896042
-16.341423	-1.065000	245.034698
-15.341423	-1.065000	645.502625
-14.341423	-1.065000	887.754639
-13.341423	-1.065000	521.050781
-12.341423	-1.065000	569.683533
-11.341423	-1.065000	491.048187
-10.341423	-1.065000	487.675873
-9.341423	-1.065000	251.924210
-8.341423	-1.065000	355.203033
-7.341423	-1.065000	241.421539
-6.341423	-1.065000	278.749908
-5.341423	-1.065000	689.553467
-4.341423	-1.065000	284.256805
-3.341423	-1.065000	161.818283
-2.341423	-1.065000	805.093933
-1.341423	-1.065000	842.655396
-0.341423	-1.065000	1111.700806
0.658577	-1.065000	966.692871
1.658577	-1.065000	1082.007813
2.658577	-1.065000	655.082397
3.658577	-1.065000	209.894775
4.658577	-1.065000	210.777054
5.658577	-1.065000	503.812134
6.658577	-1.065000	219.310867
7.658577	-1.065000	567.859375
8.658577	-1.065000	161.121765
9.658577	-1.065000	410.272003
10.658577	-1.065000	493.405060
11.658577	-1.065000	736.170105
12.658577	-1.065000	785.684265
13.658577	-1.065000	736.161072
14.658577	-1.065000	941.462402
15.658577	-1.065000	769.865845
16.658577	-1.065000	546.853210
17.658577	-1.065000	441.559082
18.658577	-1.065000	136.648666
19.658577	-1.065000	561.716980
20.658577	-1.065000	365.994568
21.658577	-1.065000	738.618896
22.658577	-1.065000	137.079971
23.658577	-1.065000	122.318550
24.658577	-1.065000	134.791428
-39.341423	-0.065000	13.692596
-38.341423	-0.065000	12.594455
-37.341423	-0.065000	15.001375
-36.341423	-0.065000	19.185123
-35.341423	-0.065000	20.982368
-34.341423	-0.065000	109.754654
-33.341423	-0.065000	159.015518
-32.341423	-0.065000	67.630554
-31.341423	-0.065000	74.070229
-30.341423	-0.065000	34.481152
-29.341423	-0.065000	35.944633
-28.341423	-0.065000	7.650307
-27.341423	-0.065000	5.165654
-26.341423	-0.065000	88.991692
-25.341423	-0.065000	704.182739
-24.341423	-0.065000	868.934875
-23.341423	-0.065000	629.311462
-22.341423	-0.065000	121.042358
-21.341423	-0.065000	60.125175
-20.341423	-0.065000	136.463089
-19.341423	-0.065000	689.381775
-18.341423	-0.065000	518.977966
-17.341423	-0.065000	146.604935
-16.341423	-0.065000	369.793152
-15.341423	-0.065000	153.663284
-14.341423	-0.065000	740.761047
-13.341423	-0.065000	552.373840
-12.341423	-0.065000	678.674011
-11.341423	-0.065000	633.761169
-10.341423	-0.065000	424.890320
-9.341423	-0.065000	243.902222
-8.341423	-0.065000	362.588013
-7.341423	-0.065000	307.132813
-6.341423	-0.065000	424.374542
-5.341423	-0.065000	789.537170
-4.341423	-0.065000	544.365662
-3.341423	-0.065000	622.165039
-2.341423	-0.065000	965.723511
-1.341423	-0.065000	1134.094849
-0.341423	-0.065000	1081.871094
0.658577	-0.065000	1065.885010
1.658577	-0.065000	968.385986
2.658577	-0.065000	308.337189
3.658577	-0.065000	295.827545
4.658577	-0.065000	256.294495
5.658577	-0.065000	573.399841
6.658577	-0.065000	299.633057
7.658577	-0.065000	624.780273
8.658577	-0.065000	488.862152
9.658577	-0.065000	755.729004
10.658577	-0.065000	587.865601
11.658577	-0.065000	1044.082153
12.658577	-0.065000	860.594543
13.658577	-0.065000	834.446289
14.658577	-0.065000	664.795776
15.658577	-0.065000	575.649109
16.658577	-0.065000	557.778015
17.658577	-0.065000	460.920197
18.658577	-0.065000	66.919960
19.658577	-0.065000	113.567986
20.658577	-0.065000	708.878723
21.658577	-0.065000	884.144653
22.658577	-0.065000	840.239319
23.658577	-0.065000	123.749001
24.658577	-0.065000	158.569214
-39.341423	0.935000	9.946146
-38.341423	0.935000	7.298667
-37.341423	0.935000	5.819317
-36.341423	0.935000	25.289396
-35.341423	0.935000	71.974297
-34.341423	0.935000	135.807663
-33.341423	0.935000	204.372345
-32.341423	0.935000	181.091995
-31.341423	0.935000	273.675751
-30.341423	0.935000	88.484138
-29.341423	0.935000	14.467642
-28.341423	0.935000	3.441466
-27.341423	0.935000	23.353941
-26.341423	0.935000	106.472610
-25.341423	0.935000	885.321045
-24.341423	0.935000	572.940491
-23.341423	0.935000	749.161987
-22.341423	0.935000	806.945374
-21.341423	0.935000	528.679993
-20.341423	0.935000	307.088287
-19.341423	0.935000	659.776550
-18.341423	0.935000	250.586456
-17.341423	0.935000	301.533112
-16.341423	0.935000	194.417297
-15.341423	0.935000	161.944855
-14.341423	0.935000	942.639465
-13.341423	0.935000	688.091187
-12.341423	0.935000	771.780151
-11.341423	0.935000	661.038086
-10.341423	0.935000	708.768188
-9.341423	0.935000	405.886719
-8.341423	0.935000	307.404572
-7.341423	0.935000	283.815613
-6.341423	0.935000	432.098663
-5.341423	0.935000	892.479736
-4.341423	0.935000	1025.669556
-3.341423	0.935000	408.166138
-2.341423	0.935000	868.194946
-1.341423	0.935000	1093.942871
-0.341423	0.935000	1115.167969
0.658577	0.935000	979.474670
1.658577	0.935000	283.388031
2.658577	0.935000	299.397186
3.658577	0.935000	352.064362
4.658577	0.935000	352.247559
5.658577	0.935000	557.838928
6.658577	0.935000	836.211975
7.658577	0.935000	772.887878
8.658577	0.935000	850.285645
9.658577	0.935000	870.489746
10.658577	0.935000	799.742676
11.658577	0.935000	951.985107
12.658577	0.935000	976.568604
13.658577	0.935000	873.892578
14.658577	0.935000	412.422180
15.658577	0.935000	497.175385
16.658577	0.935000	418.671478
17.658577	0.935000	494.874725
18.658577	0.935000	428.344391
19.658577	0.935000	708.510010
20.658577	0.935000	903.944336
21.658577	0.935000	899.264282
22.658577	0.935000	965.036560
23.658577	0.935000	673.644836
24.658577	0.935000	195.389938
-39.341423	1.935000	24.728674
-38.341423	1.935000	27.665846
-37.341423	1.935000	53.077663
-36.341423	1.935000	257.782288
-35.341423	1.935000	431.336914
-34.341423	1.935000	131.425262
-33.341423	1.935000	300.879181
-32.341423	1.935000	837.883850
-31.341423	1.935000	554.962463
-30.341423	1.935000	382.810913
-29.341423	1.935000	172.943405
-28.341423	1.935000	20.434454
-27.341423	1.935000	87.371101
-26.341423	1.935000	666.885925
-25.341423	1.935000	658.276123
-24.341423	1.935000	139.988480
-23.341423	1.935000	371.009705
-22.341423	1.935000	734.267578
-21.341423	1.935000	961.780396
-20.341423	1.935000	874.682129
-19.341423	1.935000	153.760788
-18.341423	1.935000	34.607147
-17.341423	1.935000	25.108486
-16.341423	1.935000	8.982743
-15.341423	1.935000	101.827782
-14.341423	1.935000	1017.091125
-13.341423	1.935000	1043.467285
-12.341423	1.935000	900.817993
-11.341423	1.935000	684.872070
-10.341423	1.935000	742.719727
-9.341423	1.935000	557.716003
-8.341423	1.935000	449.895294
-7.341423	1.935000	368.331512
-6.341423	1.935000	537.689819
-5.341423	1.935000	1016.470520
-4.341423	1.935000	978.191650
-3.341423	1.935000	1143.962280
-2.341423	1.935000	905.592957
-1.341423	1.935000	956.714355
-0.341423	1.935000	975.862915
0.658577	1.935000	719.361511
1.658577	1.935000	154.751068
2.658577	1.935000	353.497131
3.658577	1.935000	202.368530
4.658577	1.935000	226.416565
5.658577	1.935000	757.858521
6.658577	1.935000	1008.706299
7.658577	1.935000	742.315918
8.658577	1.935000	331.906738
9.658577	1.935000	924.068054
10.658577	1.935000	922.555786
11.658577	1.935000	916.271606
12.658577	1.935000	998.947998
13.658577	1.935000	901.723999
14.658577	1.935000	869.519592
15.658577	1.935000	522.949158
16.658577	1.935000	386.959259
17.658577	1.935000	509.769257
18.658577	1.935000	210.008636
19.658577	1.935000	360.541931
20.658577	1.935000	748.782837
21.658577	1.935000	810.743896
22.658577	1.935000	941.865601
23.658577	1.935000	838.537537
24.658577	1.935000	836.893372
-39.341423	2.935000	59.925903
-38.341423	2.935000	211.967484
-37.341423	2.935000	404.322113
-36.341423	2.935000	305.305267
-35.341423	2.935000	249.972794
-34.341423	2.935000	51.753143
-33.341423	2.935000	168.006241
-32.341423	2.935000	623.042725
-31.341423	2.935000	609.205811
-30.341423	2.935000	590.861084
-29.341423	2.935000	617.857300
-28.341423	2.935000	339.812775
-27.341423	2.935000	585.750122
-26.341423	2.935000	691.783875
-25.341423	2.935000	799.551147
-24.341423	2.935000	190.007690
-23.341423	2.935000	200.920105
-22.341423	2.935000	354.758667
-21.341423	2.935000	870.037415
-20.341423	2.935000	522.907410
-19.341423	2.935000	127.936417
-18.341423	2.935000	21.400829
-17.341423	2.935000	21.021454
-16.341423	2.935000	4.992239
-15.341423	2.935000	13.670722
-14.341423	2.935000	97.700325
-13.341423	2.935000	327.179047
-12.341423	2.935000	798.174927
-11.341423	2.935000	740.545837
-10.341423	2.935000	991.882996
-9.341423	2.935000	719.513977
-8.341423	2.935000	692.967468
-7.341423	2.935000	476.520508
-6.341423	2.935000	555.176025
-5.341423	2.935000	1021.069214
-4.341423	2.935000	1057.481689
-3.341423	2.935000	1085.220215
-2.341423	2.935000	992.425232
-1.341423	2.935000	817.063904
-0.341423	2.935000	854.308167
0.658577	2.935000	974.525696
1.658577	2.935000	641.669128
2.658577	2.935000	393.763275
3.658577	2.935000	211.322861
4.658577	2.935000	324.281555
5.658577	2.935000	423.333496
6.658577	2.935000	51.271091
7.658577	2.935000	77.098953
8.658577	2.935000	805.956543
9.658577	2.935000	952.779541
10.658577	2.935000	991.038025
11.658577	2.935000	655.611572
12.658577	2.935000	629.056152
13.658577	2.935000	923.184448
14.658577	2.935000	1110.001587
15.658577	2.935000	599.766541
16.658577	2.935000	415.338593
17.658577	2.935000	666.613220
18.658577	2.935000	186.407257
19.658577	2.935000	72.771812
20.658577	2.935000	222.753845
21.658577	2.935000	733.069397
22.658577	2.935000	957.138489
23.658577	2.935000	908.932617
24.658577	2.935000	250.191406
-39.341423	3.935000	459.223511
-38.341423	3.935000	497.454620
-37.341423	3.935000	378.012543
-36.341423	3.935000	464.032043
-35.341423	3.935000	436.782898
-34.341423	3.935000	95.019318
-33.341423	3.935000	68.637733
-32.341423	3.935000	331.656616
-31.341423	3.935000	611.992249
-30.341423	3.935000	751.437500
-29.341423	3.935000	689.598206
-28.341423	3.935000	726.407043
-27.341423	3.935000	672.360291
-26.341423	3.935000	767.266724
-25.341423	3.935000	887.713989
-24.341423	3.935000	368.255127
-23.341423	3.935000	166.628342
-22.341423	3.935000	292.546478
-21.341423	3.935000	839.696533
-20.341423	3.935000	868.106079
-19.341423	3.935000	302.396851
-18.341423	3.935000	591.234497
-17.341423	3.935000	582.803101
-16.341423	3.935000	56.309834
-15.341423	3.935000	136.747238
-14.341423	3.935000	27.300766
-13.341423	3.935000	63.964539
-12.341423	3.935000	526.592224
-11.341423	3.935000	669.243652
-10.341423	3.935000	959.055420
-9.341423	3.935000	543.673340
-8.341423	3.935000	227.616745
-7.341423	3.935000	324.798981
-6.341423	3.935000	309.017029
-5.341423	3.935000	1109.175049
-4.341423	3.935000	161.596466
-3.341423	3.935000	851.453308
-2.341423	3.935000	1170.885620
-1.341423	3.935000	1123.678589
-0.341423	3.935000	1080.422241
0.658577	3.935000	1124.969849
1.658577	3.935000	938.523071
2.658577	3.935000	490.497559
3.658577	3.935000	272.805939
4.658577	3.935000	418.317566
5.658577	3.935000	727.601379
6.658577	3.935000	558.430664
7.658577	3.935000	489.065613
8.658577	3.935000	1212.922974
9.658577	3.935000	1015.605591
10.658577	3.935000	370.079742
11.658577	3.935000	481.177490
12.658577	3.935000	589.404358
13.658577	3.935000	769.712402
14.658577	3.935000	1007.209961
15.658577	3.935000	602.406433
16.658577	3.935000	456.828796
17.658577	3.935000	694.445068
18.658577	3.935000	1007.680969
19.658577	3.935000	1136.321777
20.658577	3.935000	1070.138062
21.658577	3.935000	895.753052
22.658577	3.935000	845.944458
23.658577	3.935000	383.532715
24.658577	3.935000	132.162964
-39.341423	4.935000	905.765259
-38.341423	4.935000	673.511902
-37.341423	4.935000	975.924194
-36.341423	4.935000	1214.551758
-35.341423	4.935000	1156.908447
-34.341423	4.935000	469.423401
-33.341423	4.935000	148.667374
-32.341423	4.935000	403.189636
-31.341423	4.935000	584.662292
-30.341423	4.935000	667.355286
-29.341423	4.935000	604.302002
-28.341423	4.935000	308.916992
-27.341423	4.935000	418.787811
-26.341423	4.935000	374.365387
-25.341423	4.935000	798.703613
-24.341423	4.935000	486.824463
-23.341423	4.935000	352.586639
-22.341423	4.935000	525.398804
-21.341423	4.935000	374.036499
-20.341423	4.935000	381.697784
-19.341423	4.935000	791.369019
-18.341423	4.935000	841.895264
-17.341423	4.935000	844.133179
-16.341423	4.935000	667.326721
-15.341423	4.935000	572.132141
-14.341423	4.935000	308.717102
-13.341423	4.935000	22.381453
-12.341423	4.935000	194.448669
-11.341423	4.935000	684.983582
-10.341423	4.935000	487.003784
-9.341423	4.935000	807.535889
-8.341423	4.935000	378.134155
-7.341423	4.935000	402.383728
-6.341423	4.935000	104.864952
-5.341423	4.935000	51.695351
-4.341423	4.935000	53.883087
-3.341423	4.935000	937.969910
-2.341423	4.935000	1034.305542
-1.341423	4.935000	951.929993
-0.341423	4.935000	1055.988037
0.658577	4.935000	1097.200073
1.658577	4.935000	925.032715
2.658577	4.935000	492.523956
3.658577	4.935000	318.338562
4.658577	4.935000	252.094879
5.658577	4.935000	504.818268
6.658577	4.935000	726.931458
7.658577	4.935000	673.730835
8.658577	4.935000	1156.739990
9.658577	4.935000	1298.570679
10.658577	4.935000	663.582458
11.658577	4.935000	310.872650
12.658577	4.935000	646.209351
13.658577	4.935000	641.459229
14.658577	4.935000	888.066589
15.658577	4.935000	901.534058
16.658577	4.935000	807.961609
17.658577	4.935000	879.075745
18.658577	4.935000	1102.507690
19.658577	4.935000	1097.629150
20.658577	4.935000	697.534058
21.658577	4.935000	951.879944
22.658577	4.935000	831.744446
23.658577	4.935000	387.239777
24.658577	4.935000	134.045609
-39.341423	5.935000	1077.337158
-38.341423	5.935000	935.948730
-37.341423	5.935000	1053.308960
-36.341423	5.935000	921.819885
-35.341423	5.935000	829.816528
-34.341423	5.935000	704.389038
-33.341423	5.935000	335.472107
-32.341423	5.935000	611.964111
-31.341423	5.935000	178.895859
-30.341423	5.935000	83.426224
-29.341423	5.935000	119.849243
-28.341423	5.935000	24.387125
-27.341423	5.935000	74.413544
-26.341423	5.935000	628.778442
-25.341423	5.935000	820.244141
-24.341423	5.935000	694.241333
-23.341423	5.935000	533.461853
-22.341423	5.935000	180.860886
-21.341423	5.935000	109.436882
-20.341423	5.935000	293.696930
-19.341423	5.935000	1031.778198
-18.341423	5.935000	719.009705
-17.341423	5.935000	643.927795
-16.341423	5.935000	768.053711
-15.341423	5.935000	827.555969
-14.341423	5.935000	602.504333
-13.341423	5.935000	86.105614
-12.341423	5.935000	194.505875
-11.341423	5.935000	790.086975
-10.341423	5.935000	871.137207
-9.341423	5.935000	717.662292
-8.341423	5.935000	650.401855
-7.341423	5.935000	183.846558
-6.341423	5.935000	516.563477
-5.341423	5.935000	29.076611
-4.341423	5.935000	53.964806
-3.341423	5.935000	824.399658
-2.341423	5.935000	1026.549194
-1.341423	5.935000	964.073425
-0.341423	5.935000	983.383179
0.658577	5.935000	1155.004517
1.658577	5.935000	1079.504272
2.658577	5.935000	609.452393
3.658577	5.935000	368.692322
4.658577	5.935000	245.026657
5.658577	5.935000	289.431000
6.658577	5.935000	415.962891
7.658577	5.935000	451.047394
8.658577	5.935000	411.779419
9.658577	5.935000	972.525757
10.658577	5.935000	1276.752197
11.658577	5.935000	851.284302
12.658577	5.935000	546.839417
13.658577	5.935000	614.291382
14.658577	5.935000	820.533081
15.658577	5.935000	948.341248
16.658577	5.935000	113.322693
17.658577	5.935000	301.210938
18.658577	5.935000	1122.679810
19.658577	5.935000	856.059021
20.658577	5.935000	1040.578369
21.658577	5.935000	1250.306641
22.658577	5.935000	912.252258
23.658577	5.935000	463.005829
24.658577	5.935000	251.865067
-39.341423	6.935000	1134.072510
-38.341423	6.935000	1150.314575
-37.341423	6.935000	1033.071777
-36.341423	6.935000	992.283203
-35.341423	6.935000	771.540039
-34.341423	6.935000	734.806213
-33.341423	6.935000	595.873901
-32.341423	6.935000	745.387878
-31.341423	6.935000	396.843445
-30.341423	6.935000	785.688660
-29.341423	6.935000	543.432556
-28.341423	6.935000	32.889748
-27.341423	6.935000	138.046616
-26.341423	6.935000	335.352570
-25.341423	6.935000	589.701294
-24.341423	6.935000	1144.113525
-23.341423	6.935000	282.330139
-22.341423	6.935000	189.997513
-21.341423	6.935000	289.163147
-20.341423	6.935000	855.678345
-19.341423	6.935000	1046.236084
-18.341423	6.935000	911.021118
-17.341423	6.935000	740.171570
-16.341423	6.935000	838.765076
-15.341423	6.935000	909.589783
-14.341423	6.935000	632.389771
-13.341423	6.935000	609.474792
-12.341423	6.935000	238.280884
-11.341423	6.935000	286.085510
-10.341423	6.935000	422.097595
-9.341423	6.935000	496.256165
-8.341423	6.935000	597.022217
-7.341423	6.935000	391.884949
-6.341423	6.935000	355.696716
-5.341423	6.935000	203.365341
-4.341423	6.935000	172.017868
-3.341423	6.935000	547.138916
-2.341423	6.935000	1045.708862
-1.341423	6.935000	1063.062744
-0.341423	6.935000	958.597534
0.658577	6.935000	1082.605713
1.658577	6.935000	959.376404
2.658577	6.935000	521.979736
3.658577	6.935000	124.691566
4.658577	6.935000	157.577087
5.658577	6.935000	233.408920
6.658577	6.935000	595.753296
7.658577	6.935000	525.139954
8.658577	6.935000	425.277039
9.658577	6.935000	455.458679
10.658577	6.935000	898.775452
11.658577	6.935000	776.270142
12.658577	6.935000	926.052307
13.658577	6.935000	814.729370
14.658577	6.935000	117.077301
15.658577	6.935000	554.084412
16.658577	6.935000	344.235291
17.658577	6.935000	326.556458
18.658577	6.935000	1096.570313
19.658577	6.935000	424.343689
20.658577	6.935000	1167.729980
21.658577	6.935000	1179.504761
22.658577	6.935000	325.073090
23.658577	6.935000	686.231201
24.658577	6.935000	495.314301
-39.341423	7.935000	1112.531006
-38.341423	7.935000	1068.056519
-37.341423	7.935000	1074.242798
-36.341423	7.935000	1000.496643
-35.341423	7.935000	981.113831
-34.341423	7.935000	809.731873
-33.341423	7.935000	672.756653
-32.341423	7.935000	757.467407
-31.341423	7.935000	757.657288
-30.341423	7.935000	791.900940
-29.341423	7.935000	863.740723
-28.341423	7.935000	254.355820
-27.341423	7.935000	309.335846
-26.341423	7.935000	389.594513
-25.341423	7.935000	495.454590
-24.341423	7.935000	389.701813
-23.341423	7.935000	353.619354
-22.341423	7.935000	215.535522
-21.341423	7.935000	210.192841
-20.341423	7.935000	450.476898
-19.341423	7.935000	567.461792
-18.341423	7.935000	755.282104
-17.341423	7.935000	384.354431
-16.341423	7.935000	731.200989
-15.341423	7.935000	1115.077271
-14.341423	7.935000	517.017822
-13.341423	7.935000	461.684723
-12.341423	7.935000	822.627441
-11.341423	7.935000	288.811035
-10.341423	7.935000	317.676697
-9.341423	7.935000	348.801849
-8.341423	7.935000	358.354584
-7.341423	7.935000	371.877594
-6.341423	7.935000	402.359497
-5.341423	7.935000	680.672852
-4.341423	7.935000	324.768860
-3.341423	7.935000	523.598755
-2.341423	7.935000	862.820374
-1.341423	7.935000	1038.604126
-0.341423	7.935000	1033.553589
0.658577	7.935000	1111.844727
1.658577	7.935000	793.213379
2.658577	7.935000	750.524841
3.658577	7.935000	404.161774
4.658577	7.935000	413.557312
5.658577	7.935000	217.086426
6.658577	7.935000	120.837868
7.658577	7.935000	363.237213
8.658577	7.935000	723.213867
9.658577	7.935000	564.608826
10.658577	7.935000	796.029419
11.658577	7.935000	653.561646
12.658577	7.935000	817.799072
13.658577	7.935000	692.454529
14.658577	7.935000	487.542816
15.658577	7.935000	483.093414
16.658577	7.935000	552.331238
17.658577	7.935000	545.007141
18.658577	7.935000	481.335693
19.658577	7.935000	45.632252
20.658577	7.935000	279.670288
21.658577	7.935000	904.167542
22.658577	7.935000	803.551147
23.658577	7.935000	560.062805
24.658577	7.935000	919.619324
-39.341423	8.935000	1016.793274
-38.341423	8.935000	912.018921
-37.341423	8.935000	862.227295
-36.341423	8.935000	878.868042
-35.341423	8.935000	1033.693237
-34.341423	8.935000	1067.546875
-33.341423	8.935000	930.871948
-32.341423	8.935000	893.820374
-31.341423	8.935000	906.283630
-30.341423	8.935000	768.049866
-29.341423	8.935000	671.714661
-28.341423	8.935000	646.355530
-27.341423	8.935000	505.423218
-26.341423	8.935000	499.620575
-25.341423	8.935000	484.308380
-24.341423	8.935000	385.331085
-23.341423	8.935000	295.658630
-22.341423	8.935000	324.381775
-21.341423	8.935000	265.143188
-20.341423	8.935000	410.055420
-19.341423	8.935000	550.600525
-18.341423	8.935000	553.218323
-17.341423	8.935000	783.137390
-16.341423	8.935000	846.462769
-15.341423	8.935000	1228.781982
-14.341423	8.935000	603.786499
-13.341423	8.935000	710.202881
-12.341423	8.935000	504.384094
-11.341423	8.935000	253.186249
-10.341423	8.935000	348.942322
-9.341423	8.935000	328.422668
-8.341423	8.935000	343.424988
-7.341423	8.935000	458.168243
-6.341423	8.935000	671.338867
-5.341423	8.935000	488.629730
-4.341423	8.935000	481.064850
-3.341423	8.935000	629.793762
-2.341423	8.935000	745.352783
-1.341423	8.935000	1081.965454
-0.341423	8.935000	1054.178833
0.658577	8.935000	964.290466
1.658577	8.935000	649.767517
2.658577	8.935000	406.176697
3.658577	8.935000	123.023048
4.658577	8.935000	633.168457
5.658577	8.935000	212.284058
6.658577	8.935000	135.749695
7.658577	8.935000	272.259552
8.658577	8.935000	188.323532
9.658577	8.935000	608.515686
10.658577	8.935000	475.444946
11.658577	8.935000	271.314362
12.658577	8.935000	682.907349
13.658577	8.935000	86.536644
14.658577	8.935000	445.485870
15.658577	8.935000	57.471691
16.658577	8.935000	86.161842
17.658577	8.935000	720.388123
18.658577	8.935000	34.542686
19.658577	8.935000	6.183483
20.658577	8.935000	13.887081
21.658577	8.935000	69.884315
22.658577	8.935000	46.184650
23.658577	8.935000	45.389862
24.658577	8.935000	403.331726
-39.341423	9.935000	864.944641
-38.341423	9.935000	773.800171
-37.341423	9.935000	730.658142
-36.341423	9.935000	748.347900
-35.341423	9.935000	926.481567
-34.341423	9.935000	917.121887
-33.341423	9.935000	784.499329
-32.341423	9.935000	935.684998
-31.341423	9.935000	1034.875977
-30.341423	9.935000	739.910400
-29.341423	9.935000	895.914307
-28.341423	9.935000	825.163086
-27.341423	9.935000	519.287109
-26.341423	9.935000	391.467072
-25.341423	9.935000	411.309082
-24.341423	9.935000	147.669815
-23.341423	9.935000	486.296844
-22.341423	9.935000	629.157471
-21.341423	9.935000	623.322571
-20.341423	9.935000	504.009338
-19.341423	9.935000	587.296631
-18.341423	9.935000	627.626709
-17.341423	9.935000	762.734497
-16.341423	9.935000	855.180847
-15.341423	9.935000	743.205322
-14.341423	9.935000	947.542847
-13.341423	9.935000	730.097534
-12.341423	9.935000	494.348083
-11.341423	9.935000	261.932404
-10.341423	9.935000	366.539032
-9.341423	9.935000	304.009613
-8.341423	9.935000	370.244263
-7.341423	9.935000	440.435944
-6.341423	9.935000	1144.533447
-5.341423	9.935000	975.696899
-4.341423	9.935000	817.820129
-3.341423	9.935000	519.257507
-2.341423	9.935000	591.668274
-1.341423	9.935000	1033.564331
-0.341423	9.935000	1161.143433
0.658577	9.935000	792.887024
1.658577	9.935000	398.021729
2.658577	9.935000	324.797089
3.658577	9.935000	312.877289
4.658577	9.935000	276.824371
5.658577	9.935000	121.346634
6.658577	9.935000	74.241394
7.658577	9.935000	286.233002
8.658577	9.935000	187.862534
9.658577	9.935000	544.114441
10.658577	9.935000	567.764343
11.658577	9.935000	477.416229
12.658577	9.935000	289.355682
13.658577	9.935000	31.546078
14.658577	9.935000	12.276917
15.658577	9.935000	7.203486
16.658577	9.935000	12.033961
17.658577	9.935000	17.978584
18.658577	9.935000	10.672109
19.658577	9.935000	19.714436
20.658577	9.935000	112.903000
21.658577	9.935000	428.378845
22.658577	9.935000	181.745651
23.658577	9.935000	10.780925
24.658577	9.935000	26.168949
-39.341423	10.935000	599.115479
-38.341423	10.935000	668.053406
-37.341423	10.935000	729.053467
-36.341423	10.935000	855.635193
-35.341423	10.935000	866.263123
-34.341423	10.935000	774.141785
-33.341423	10.935000	642.541748
-32.341423	10.935000	794.287537
-31.341423	10.935000	1068.924194
-30.341423	10.935000	970.661926
-29.341423	10.935000	866.552490
-28.341423	10.935000	815.159363
-27.341423	10.935000	313.644501
-26.341423	10.935000	384.240265
-25.341423	10.935000	92.539734
-24.341423	10.935000	17.455999
-23.341423	10.935000	110.801750
-22.341423	10.935000	617.724060
-21.341423	10.935000	323.236725
-20.341423	10.935000	434.346680
-19.341423	10.935000	692.740417
-18.341423	10.935000	627.997681
-17.341423	10.935000	593.333008
-16.341423	10.935000	490.547150
-15.341423	10.935000	853.335327
-14.341423	10.935000	656.698853
-13.341423	10.935000	696.078003
-12.341423	10.935000	213.004120
-11.341423	10.935000	202.092514
-10.341423	10.935000	317.545074
-9.341423	10.935000	396.518188
-8.341423	10.935000	402.065002
-7.341423	10.935000	493.238525
-6.341423	10.935000	967.446899
-5.341423	10.935000	1076.780762
-4.341423	10.935000	918.160034
-3.341423	10.935000	255.901459
-2.341423	10.935000	517.129639
-1.341423	10.935000	1018.280273
-0.341423	10.935000	906.347473
0.658577	10.935000	790.792236
1.658577	10.935000	449.549011
2.658577	10.935000	397.093323
3.658577	10.935000	513.443359
4.658577	10.935000	130.595886
5.658577	10.935000	117.849640
6.658577	10.935000	185.931763
7.658577	10.935000	411.100494
8.658577	10.935000	126.628349
9.658577	10.935000	154.457214
10.658577	10.935000	138.428558
11.658577	10.935000	406.556427
12.658577	10.935000	379.507111
13.658577	10.935000	40.170792
14.658577	10.935000	1.317164
15.658577	10.935000	7.974654
16.658577	10.935000	0.000000
17.658577	10.935000	0.000000
18.658577	10.935000	12.239015
19.658577	10.935000	30.736876
20.658577	10.935000	413.232391
21.658577	10.935000	451.910248
22.658577	10.935000	465.901123
23.658577	10.935000	145.372940
24.658577	10.935000	146.765457
-39.341423	11.935000	640.608643
-38.341423	11.935000	729.156311
-37.341423	11.935000	765.653687
-36.341423	11.935000	823.242615
-35.341423	11.935000	773.820679
-34.341423	11.935000	678.452454
-33.341423	11.935000	563.432495
-32.341423	11.935000	717.347656
-31.341423	11.935000	1026.167236
-30.341423	11.935000	1025.189453
-29.341423	11.935000	1020.865784
-28.341423	11.935000	944.112610
-27.341423	11.935000	103.909660
-26.341423	11.935000	362.357544
-25.341423	11.935000	47.094769
-24.341423	11.935000	33.527699
-23.341423	11.935000	303.684479
-22.341423	11.935000	510.513245
-21.341423	11.935000	310.439850
-20.341423	11.935000	347.009399
-19.341423	11.935000	805.708252
-18.341423	11.935000	480.366241
-17.341423	11.935000	398.608032
-16.341423	11.935000	479.587982
-15.341423	11.935000	917.999634
-14.341423	11.935000	841.422119
-13.341423	11.935000	797.919495
-12.341423	11.935000	234.570145
-11.341423	11.935000	162.468735
-10.341423	11.935000	130.475067
-9.341423	11.935000	371.730103
-8.341423	11.935000	416.084229
-7.341423	11.935000	478.208984
-6.341423	11.935000	433.935883
-5.341423	11.935000	971.697876
-4.341423	11.935000	802.046753
-3.341423	11.935000	411.440948
-2.341423	11.935000	216.079559
-1.341423	11.935000	1116.434082
-0.341423	11.935000	1057.260498
0.658577	11.935000	580.387085
1.658577	11.935000	353.025848
2.658577	11.935000	306.515472
3.658577	11.935000	67.716789
4.658577	11.935000	40.087437
5.658577	11.935000	252.424530
6.658577	11.935000	719.376343
7.658577	11.935000	802.948975
8.658577	11.935000	853.411011
9.658577	11.935000	412.327850
10.658577	11.935000	590.558716
11.658577	11.935000	487.382721
12.658577	11.935000	683.176147
13.658577	11.935000	258.760254
14.658577	11.935000	6.859040
15.658577	11.935000	0.000000
16.658577	11.935000	0.000000
17.658577	11.935000	37.000229
18.658577	11.935000	0.000000
19.658577	11.935000	6.937548
20.658577	11.935000	135.995346
21.658577	11.935000	294.986053
22.658577	11.935000	504.866150
23.658577	11.935000	521.301819
24.658577	11.935000	549.441589
-39.341423	12.935000	744.188904
-38.341423	12.935000	847.122620
-37.341423	12.935000	809.545837
-36.341423	12.935000	846.126282
-35.341423	12.935000	787.911804
-34.341423	12.935000	802.390442
-33.341423	12.935000	782.614197
-32.341423	12.935000	735.937622
-31.341423	12.935000	862.552490
-30.341423	12.935000	1090.762329
-29.341423	12.935000	1075.755615
-28.341423	12.935000	649.929382
-27.341423	12.935000	229.052963
-26.341423	12.935000	131.853851
-25.341423	12.935000	22.782423
-24.341423	12.935000	309.873535
-23.341423	12.935000	838.309692
-22.341423	12.935000	796.704224
-21.341423	12.935000	562.980957
-20.341423	12.935000	468.780792
-19.341423	12.935000	769.557068
-18.341423	12.935000	610.732910
-17.341423	12.935000	506.247986
-16.341423	12.935000	463.489014
-15.341423	12.935000	841.231995
-14.341423	12.935000	829.995667
-13.341423	12.935000	576.709229
-12.341423	12.935000	216.540802
-11.341423	12.935000	214.784882
-10.341423	12.935000	166.565353
-9.341423	12.935000	285.391815
-8.341423	12.935000	195.819855
-7.341423	12.935000	399.987732
-6.341423	12.935000	58.538918
-5.341423	12.935000	410.131836
-4.341423	12.935000	1015.101868
-3.341423	12.935000	839.596741
-2.341423	12.935000	437.986084
-1.341423	12.935000	623.312805
-0.341423	12.935000	462.048157
0.658577	12.935000	531.575073
1.658577	12.935000	225.073029
2.658577	12.935000	441.877289
3.658577	12.935000	169.910690
4.658577	12.935000	86.438675
5.658577	12.935000	337.085571
6.658577	12.935000	1001.567322
7.658577	12.935000	981.098816
8.658577	12.935000	539.901184
9.658577	12.935000	669.474121
10.658577	12.935000	511.586731
11.658577	12.935000	653.680176
12.658577	12.935000	557.030579
13.658577	12.935000	203.319305
14.658577	12.935000	3.934284
15.658577	12.935000	0.000000
16.658577	12.935000	0.000000
17.658577	12.935000	0.000000
18.658577	12.935000	0.000000
19.658577	12.935000	0.000000
20.658577	12.935000	7.147730
21.658577	12.935000	11.586143
22.658577	12.935000	141.598145
23.658577	12.935000	374.064606
24.658577	12.935000	127.685349
-39.341423	13.935000	866.928406
-38.341423	13.935000	912.183167
-37.341423	13.935000	906.844482
-36.341423	13.935000	870.159119
-35.341423	13.935000	913.197998
-34.341423	13.935000	938.966003
-33.341423	13.935000	781.730713
-32.341423	13.935000	652.828125
-31.341423	13.935000	789.730103
-30.341423	13.935000	934.727966
-29.341423	13.935000	786.461182
-28.341423	13.935000	586.992432
-27.341423	13.935000	574.760803
-26.341423	13.935000	515.412292
-25.341423	13.935000	167.939621
-24.341423	13.935000	343.244354
-23.341423	13.935000	578.317749
-22.341423	13.935000	717.104248
-21.341423	13.935000	780.329651
-20.341423	13.935000	517.915039
-19.341423	13.935000	482.446136
-18.341423	13.935000	693.032227
-17.341423	13.935000	240.139938
-16.341423	13.935000	524.392395
-15.341423	13.935000	624.796997
-14.341423	13.935000	1070.662598
-13.341423	13.935000	851.070129
-12.341423	13.935000	384.583984
-11.341423	13.935000	471.854980
-10.341423	13.935000	90.474274
-9.341423	13.935000	503.699493
-8.341423	13.935000	224.979813
-7.341423	13.935000	419.929535
-6.341423	13.935000	389.155426
-5.341423	13.935000	566.545349
-4.341423	13.935000	594.404175
-3.341423	13.935000	632.658203
-2.341423	13.935000	260.405823
-1.341423	13.935000	372.273865
-0.341423	13.935000	453.855530
0.658577	13.935000	527.883057
1.658577	13.935000	221.852737
2.658577	13.935000	412.410065
3.658577	13.935000	111.420380
4.658577	13.935000	4.863044
5.658577	13.935000	29.903086
6.658577	13.935000	448.081329
7.658577	13.935000	821.566528
8.658577	13.935000	589.666870
9.658577	13.935000	568.436035
10.658577	13.935000	574.494385
11.658577	13.935000	389.818542
12.658577	13.935000	563.021851
13.658577	13.935000	53.372200
14.658577	13.935000	5.328345
15.658577	13.935000	12.842954
16.658577	13.935000	3.053999
17.658577	13.935000	7.562859
18.658577	13.935000	9.869149
19.658577	13.935000	0.000000
20.658577	13.935000	53.092903
21.658577	13.935000	28.454506
22.658577	13.935000	3.780331
23.658577	13.935000	13.288806
24.658577	13.935000	11.455785
-39.341423	14.935000	1125.641602
-38.341423	14.935000	1118.271606
-37.341423	14.935000	1048.393188
-36.341423	14.935000	1031.800415
-35.341423	14.935000	1042.913818
-34.341423	14.935000	796.707031
-33.341423	14.935000	712.997925
-32.341423	14.935000	731.037476
-31.341423	14.935000	739.267212
-30.341423	14.935000	694.124756
-29.341423	14.935000	489.636200
-28.341423	14.935000	589.463257
-27.341423	14.935000	556.931213
-26.341423	14.935000	561.509155
-25.341423	14.935000	515.598694
-24.341423	14.935000	160.726547
-23.341423	14.935000	144.372314
-22.341423	14.935000	338.528870
-21.341423	14.935000	786.828796
-20.341423	14.935000	449.416931
-19.341423	14.935000	482.565704
-18.341423	14.935000	526.723999
-17.341423	14.935000	478.616425
-16.341423	14.935000	1029.382324
-15.341423	14.935000	655.064270
-14.341423	14.935000	470.522583
-13.341423	14.935000	738.306946
-12.341423	14.935000	698.917969
-11.341423	14.935000	236.180832
-10.341423	14.935000	17.137173
-9.341423	14.935000	38.139980
-8.341423	14.935000	287.332123
-7.341423	14.935000	784.252502
-6.341423	14.935000	990.831421
-5.341423	14.935000	316.412933
-4.341423	14.935000	396.931030
-3.341423	14.935000	329.324402
-2.341423	14.935000	54.996738
-1.341423	14.935000	626.897766
-0.341423	14.935000	567.198486
0.658577	14.935000	267.199341
1.658577	14.935000	411.074982
2.658577	14.935000	475.092529
3.658577	14.935000	186.897919
4.658577	14.935000	6.428637
5.658577	14.935000	127.884720
6.658577	14.935000	25.315130
7.658577	14.935000	95.777885
8.658577	14.935000	512.261841
9.658577	14.935000	717.033020
10.658577	14.935000	514.248535
11.658577	14.935000	408.200897
12.658577	14.935000	556.892883
13.658577	14.935000	40.434231
14.658577	14.935000	2.512001
15.658577	14.935000	3.156683
16.658577	14.935000	0.301437
17.658577	14.935000	0.000000
18.658577	14.935000	0.000000
19.658577	14.935000	0.000000
20.658577	14.935000	0.000000
21.658577	14.935000	0.000000
22.658577	14.935000	0.000000
23.658577	14.935000	0.000000
24.658577	14.935000	0.000000
-39.341423	15.935000	1127.662842
-38.341423	15.935000	1090.437012
-37.341423	15.935000	841.557922
-36.341423	15.935000	812.036865
-35.341423	15.935000	758.142639
-34.341423	15.935000	737.961975
-33.341423	15.935000	792.483337
-32.341423	15.935000	832.868042
-31.341423	15.935000	660.830505
-30.341423	15.935000	436.367920
-29.341423	15.935000	576.884094
-28.341423	15.935000	586.747803
-27.341423	15.935000	610.602600
-26.341423	15.935000	623.670349
-25.341423	15.935000	549.238342
-24.341423	15.935000	357.039825
-23.341423	15.935000	33.476273
-22.341423	15.935000	28.019730
-21.341423	15.935000	90.685486
-20.341423	15.935000	262.211182
-19.341423	15.935000	465.447113
-18.341423	15.935000	523.337952
-17.341423	15.935000	781.273682
-16.341423	15.935000	1006.603027
-15.341423	15.935000	1123.955688
-14.341423	15.935000	1163.960205
-13.341423	15.935000	1214.552612
-12.341423	15.935000	1202.430786
-11.341423	15.935000	772.330505
-10.341423	15.935000	25.759007
-9.341423	15.935000	3.570497
-8.341423	15.935000	46.806835
-7.341423	15.935000	621.422913
-6.341423	15.935000	350.962433
-5.341423	15.935000	69.305801
-4.341423	15.935000	71.901993
-3.341423	15.935000	118.014206
-2.341423	15.935000	220.889771
-1.341423	15.935000	419.221954
-0.341423	15.935000	455.420441
0.658577	15.935000	274.910431
1.658577	15.935000	594.757996
2.658577	15.935000	721.924561
3.658577	15.935000	261.005341
4.658577	15.935000	5.711309
5.658577	15.935000	2.698369
6.658577	15.935000	18.485050
7.658577	15.935000	11.348562
8.658577	15.935000	46.496372
9.658577	15.935000	658.514709
10.658577	15.935000	632.121216
11.658577	15.935000	109.452049
12.658577	15.935000	361.263763
13.658577	15.935000	113.616867
14.658577	15.935000	0.000000
15.658577	15.935000	14.103375
16.658577	15.935000	0.000000
17.658577	15.935000	0.000000
18.658577	15.935000	0.000000
19.658577	15.935000	0.000000
20.658577	15.935000	46.521885
21.658577	15.935000	6.413437
22.658577	15.935000	4.599096
23.658577	15.935000	0.000000
24.658577	15.935000	0.921370
