#XList		#YList		#IList		
-39.341423	-21.065000	1357.722412
-38.341423	-21.065000	1357.204224
-37.341423	-21.065000	1356.004028
-36.341423	-21.065000	1355.965820
-35.341423	-21.065000	1354.947510
-34.341423	-21.065000	1355.505981
-33.341423	-21.065000	1352.919434
-32.341423	-21.065000	1353.575684
-31.341423	-21.065000	1353.657837
-30.341423	-21.065000	1355.110718
-29.341423	-21.065000	1353.293457
-28.341423	-21.065000	1353.094116
-27.341423	-21.065000	1353.026733
-26.341423	-21.065000	1352.669678
-25.341423	-21.065000	1353.749146
-24.341423	-21.065000	1353.149170
-23.341423	-21.065000	1363.644409
-22.341423	-21.065000	1355.076660
-21.341423	-21.065000	1354.544678
-20.341423	-21.065000	1355.035156
-19.341423	-21.065000	1366.497559
-18.341423	-21.065000	1359.309814
-17.341423	-21.065000	1357.683594
-16.341423	-21.065000	1352.130737
-15.341423	-21.065000	1352.163696
-14.341423	-21.065000	1352.224731
-13.341423	-21.065000	1351.522705
-12.341423	-21.065000	1352.107422
-11.341423	-21.065000	1352.710205
-10.341423	-21.065000	1363.490112
-9.341423	-21.065000	1359.823853
-8.341423	-21.065000	1355.797363
-7.341423	-21.065000	1353.649780
-6.341423	-21.065000	1352.692261
-5.341423	-21.065000	1352.404663
-4.341423	-21.065000	1352.722534
-3.341423	-21.065000	1357.951294
-2.341423	-21.065000	1353.555176
-1.341423	-21.065000	1354.400391
-0.341423	-21.065000	1354.313721
0.658577	-21.065000	1352.493896
1.658577	-21.065000	1352.572388
2.658577	-21.065000	1352.056030
3.658577	-21.065000	1352.021484
4.658577	-21.065000	1355.305908
5.658577	-21.065000	1357.889648
6.658577	-21.065000	1380.000000
7.658577	-21.065000	1353.205078
8.658577	-21.065000	1350.681030
9.658577	-21.065000	1354.860352
10.658577	-21.065000	1353.616577
11.658577	-21.065000	1351.363281
12.658577	-21.065000	1353.556641
13.658577	-21.065000	1352.434326
14.658577	-21.065000	1352.032593
15.658577	-21.065000	1355.394531
16.658577	-21.065000	1357.347778
17.658577	-21.065000	1355.595093
18.658577	-21.065000	1352.978394
19.658577	-21.065000	1352.458130
20.658577	-21.065000	1353.433350
21.658577	-21.065000	1356.624146
22.658577	-21.065000	1362.520264
23.658577	-21.065000	1354.256836
24.658577	-21.065000	1368.999146
-39.341423	-20.065000	1356.925537
-38.341423	-20.065000	1356.545532
-37.341423	-20.065000	1355.106567
-36.341423	-20.065000	1355.834839
-35.341423	-20.065000	1357.029419
-34.341423	-20.065000	1355.378906
-33.341423	-20.065000	1352.782715
-32.341423	-20.065000	1352.567993
-31.341423	-20.065000	1353.101074
-30.341423	-20.065000	1353.803345
-29.341423	-20.065000	1354.684082
-28.341423	-20.065000	1353.270630
-27.341423	-20.065000	1353.004639
-26.341423	-20.065000	1352.989624
-25.341423	-20.065000	1352.877197
-24.341423	-20.065000	1352.921875
-23.341423	-20.065000	1353.629517
-22.341423	-20.065000	1357.272583
-21.341423	-20.065000	1352.980347
-20.341423	-20.065000	1353.491089
-19.341423	-20.065000	1354.019653
-18.341423	-20.065000	1353.734253
-17.341423	-20.065000	1353.186646
-16.341423	-20.065000	1351.950073
-15.341423	-20.065000	1351.753906
-14.341423	-20.065000	1352.605957
-13.341423	-20.065000	1352.761353
-12.341423	-20.065000	1352.604126
-11.341423	-20.065000	1354.219849
-10.341423	-20.065000	1358.922119
-9.341423	-20.065000	1354.314697
-8.341423	-20.065000	1354.350342
-7.341423	-20.065000	1353.391968
-6.341423	-20.065000	1353.072388
-5.341423	-20.065000	1353.332764
-4.341423	-20.065000	1354.961914
-3.341423	-20.065000	1355.826538
-2.341423	-20.065000	1353.740845
-1.341423	-20.065000	1354.446899
-0.341423	-20.065000	1355.186401
0.658577	-20.065000	1354.940674
1.658577	-20.065000	1354.121094
2.658577	-20.065000	1354.512817
3.658577	-20.065000	1356.229370
4.658577	-20.065000	1357.767700
5.658577	-20.065000	1358.132935
6.658577	-20.065000	1380.000000
7.658577	-20.065000	1372.248901
8.658577	-20.065000	1353.177612
9.658577	-20.065000	1352.697510
10.658577	-20.065000	1354.640137
11.658577	-20.065000	1354.195313
12.658577	-20.065000	1352.724121
13.658577	-20.065000	1352.619263
14.658577	-20.065000	1352.265015
15.658577	-20.065000	1355.112305
16.658577	-20.065000	1353.166382
17.658577	-20.065000	1352.551392
18.658577	-20.065000	1352.483887
19.658577	-20.065000	1354.124878
20.658577	-20.065000	1354.150391
21.658577	-20.065000	1353.333008
22.658577	-20.065000	1357.985596
23.658577	-20.065000	1343.308838
24.658577	-20.065000	1344.899780
-39.341423	-19.065000	1356.329102
-38.341423	-19.065000	1355.502441
-37.341423	-19.065000	1355.098755
-36.341423	-19.065000	1358.813477
-35.341423	-19.065000	1354.382690
-34.341423	-19.065000	1355.971924
-33.341423	-19.065000	1354.619141
-32.341423	-19.065000	1352.621216
-31.341423	-19.065000	1354.417603
-30.341423	-19.065000	1353.682617
-29.341423	-19.065000	1353.350708
-28.341423	-19.065000	1353.596436
-27.341423	-19.065000	1353.494995
-26.341423	-19.065000	1352.938721
-25.341423	-19.065000	1353.046509
-24.341423	-19.065000	1353.448975
-23.341423	-19.065000	1353.118530
-22.341423	-19.065000	1353.371216
-21.341423	-19.065000	1352.216675
-20.341423	-19.065000	1352.752686
-19.341423	-19.065000	1353.120361
-18.341423	-19.065000	1352.788574
-17.341423	-19.065000	1352.852417
-16.341423	-19.065000	1351.789917
-15.341423	-19.065000	1352.379639
-14.341423	-19.065000	1351.918823
-13.341423	-19.065000	1352.145020
-12.341423	-19.065000	1353.686279
-11.341423	-19.065000	1354.546143
-10.341423	-19.065000	1353.676270
-9.341423	-19.065000	1354.250732
-8.341423	-19.065000	1353.470215
-7.341423	-19.065000	1352.948486
-6.341423	-19.065000	1353.337158
-5.341423	-19.065000	1352.885254
-4.341423	-19.065000	1352.531250
-3.341423	-19.065000	1351.754761
-2.341423	-19.065000	1352.862305
-1.341423	-19.065000	1354.974121
-0.341423	-19.065000	1352.671753
0.658577	-19.065000	1354.995239
1.658577	-19.065000	1356.981689
2.658577	-19.065000	1355.862549
3.658577	-19.065000	1353.432007
4.658577	-19.065000	1355.568848
5.658577	-19.065000	1364.349121
6.658577	-19.065000	1353.865601
7.658577	-19.065000	1359.774780
8.658577	-19.065000	1357.774292
9.658577	-19.065000	1355.028931
10.658577	-19.065000	1354.493652
11.658577	-19.065000	1355.299438
12.658577	-19.065000	1353.252686
13.658577	-19.065000	1352.680054
14.658577	-19.065000	1354.114990
15.658577	-19.065000	1356.933228
16.658577	-19.065000	1352.851685
17.658577	-19.065000	1355.025391
18.658577	-19.065000	1352.266235
19.658577	-19.065000	1352.574585
20.658577	-19.065000	1353.299927
21.658577	-19.065000	1354.166992
22.658577	-19.065000	1364.373169
23.658577	-19.065000	1360.273071
24.658577	-19.065000	1354.533203
-39.341423	-18.065000	1355.551514
-38.341423	-18.065000	1355.342651
-37.341423	-18.065000	1356.040161
-36.341423	-18.065000	1356.020508
-35.341423	-18.065000	1353.157715
-34.341423	-18.065000	1351.939453
-33.341423	-18.065000	1353.777100
-32.341423	-18.065000	1353.558472
-31.341423	-18.065000	1353.492065
-30.341423	-18.065000	1351.451904
-29.341423	-18.065000	1351.995972
-28.341423	-18.065000	1353.358887
-27.341423	-18.065000	1353.351563
-26.341423	-18.065000	1352.703125
-25.341423	-18.065000	1352.981812
-24.341423	-18.065000	1353.063232
-23.341423	-18.065000	1353.493652
-22.341423	-18.065000	1353.292236
-21.341423	-18.065000	1352.460205
-20.341423	-18.065000	1352.347900
-19.341423	-18.065000	1352.072266
-18.341423	-18.065000	1351.231445
-17.341423	-18.065000	1351.962158
-16.341423	-18.065000	1351.478149
-15.341423	-18.065000	1351.740356
-14.341423	-18.065000	1352.788940
-13.341423	-18.065000	1353.417725
-12.341423	-18.065000	1352.911987
-11.341423	-18.065000	1353.367310
-10.341423	-18.065000	1353.053833
-9.341423	-18.065000	1354.295288
-8.341423	-18.065000	1353.587891
-7.341423	-18.065000	1352.369873
-6.341423	-18.065000	1352.798950
-5.341423	-18.065000	1353.523193
-4.341423	-18.065000	1353.158447
-3.341423	-18.065000	1351.719727
-2.341423	-18.065000	1352.526978
-1.341423	-18.065000	1353.978638
-0.341423	-18.065000	1353.665527
0.658577	-18.065000	1356.544434
1.658577	-18.065000	1355.794800
2.658577	-18.065000	1353.017334
3.658577	-18.065000	1355.755615
4.658577	-18.065000	1352.692627
5.658577	-18.065000	1353.229736
6.658577	-18.065000	1352.937012
7.658577	-18.065000	1352.872681
8.658577	-18.065000	1354.600952
9.658577	-18.065000	1354.199463
10.658577	-18.065000	1355.543823
11.658577	-18.065000	1354.112915
12.658577	-18.065000	1353.470581
13.658577	-18.065000	1353.216919
14.658577	-18.065000	1352.841187
15.658577	-18.065000	1354.189453
16.658577	-18.065000	1352.854614
17.658577	-18.065000	1353.620117
18.658577	-18.065000	1353.834351
19.658577	-18.065000	1354.664795
20.658577	-18.065000	1356.345581
21.658577	-18.065000	1355.645752
22.658577	-18.065000	1352.299316
23.658577	-18.065000	1353.323120
24.658577	-18.065000	1353.701782
-39.341423	-17.065000	1355.858887
-38.341423	-17.065000	1355.261475
-37.341423	-17.065000	1353.289551
-36.341423	-17.065000	1352.383301
-35.341423	-17.065000	1360.232422
-34.341423	-17.065000	1356.733276
-33.341423	-17.065000	1356.101929
-32.341423	-17.065000	1353.429688
-31.341423	-17.065000	1353.203735
-30.341423	-17.065000	1352.173096
-29.341423	-17.065000	1353.659180
-28.341423	-17.065000	1353.388306
-27.341423	-17.065000	1353.617676
-26.341423	-17.065000	1353.053955
-25.341423	-17.065000	1352.699463
-24.341423	-17.065000	1353.468872
-23.341423	-17.065000	1353.511597
-22.341423	-17.065000	1352.777100
-21.341423	-17.065000	1352.748779
-20.341423	-17.065000	1351.914063
-19.341423	-17.065000	1350.059937
-18.341423	-17.065000	1355.568359
-17.341423	-17.065000	1352.922852
-16.341423	-17.065000	1351.930420
-15.341423	-17.065000	1352.216064
-14.341423	-17.065000	1353.120239
-13.341423	-17.065000	1352.114746
-12.341423	-17.065000	1352.375488
-11.341423	-17.065000	1354.342041
-10.341423	-17.065000	1353.644531
-9.341423	-17.065000	1353.528076
-8.341423	-17.065000	1352.679565
-7.341423	-17.065000	1355.409302
-6.341423	-17.065000	1352.285889
-5.341423	-17.065000	1352.308716
-4.341423	-17.065000	1354.948853
-3.341423	-17.065000	1352.356323
-2.341423	-17.065000	1355.405518
-1.341423	-17.065000	1353.251343
-0.341423	-17.065000	1356.035767
0.658577	-17.065000	1356.595581
1.658577	-17.065000	1353.828857
2.658577	-17.065000	1354.216064
3.658577	-17.065000	1356.556519
4.658577	-17.065000	1352.711182
5.658577	-17.065000	1351.630737
6.658577	-17.065000	1354.112305
7.658577	-17.065000	1353.143555
8.658577	-17.065000	1352.664185
9.658577	-17.065000	1352.945557
10.658577	-17.065000	1353.387573
11.658577	-17.065000	1353.407715
12.658577	-17.065000	1354.885986
13.658577	-17.065000	1352.521118
14.658577	-17.065000	1353.974854
15.658577	-17.065000	1353.588257
16.658577	-17.065000	1356.059448
17.658577	-17.065000	1354.975830
18.658577	-17.065000	1353.624634
19.658577	-17.065000	1355.166626
20.658577	-17.065000	1356.110474
21.658577	-17.065000	1353.664551
22.658577	-17.065000	1352.257690
23.658577	-17.065000	1351.584351
24.658577	-17.065000	1352.271606
-39.341423	-16.065000	1356.102417
-38.341423	-16.065000	1353.529907
-37.341423	-16.065000	1352.387085
-36.341423	-16.065000	1355.405151
-35.341423	-16.065000	1354.323364
-34.341423	-16.065000	1354.432251
-33.341423	-16.065000	1354.741821
-32.341423	-16.065000	1353.386475
-31.341423	-16.065000	1353.817383
-30.341423	-16.065000	1353.664307
-29.341423	-16.065000	1353.593872
-28.341423	-16.065000	1353.534546
-27.341423	-16.065000	1353.422485
-26.341423	-16.065000	1353.391602
-25.341423	-16.065000	1353.002075
-24.341423	-16.065000	1354.227539
-23.341423	-16.065000	1353.157227
-22.341423	-16.065000	1353.809082
-21.341423	-16.065000	1353.973145
-20.341423	-16.065000	1354.865601
-19.341423	-16.065000	1358.248535
-18.341423	-16.065000	1355.954346
-17.341423	-16.065000	1354.199097
-16.341423	-16.065000	1352.686157
-15.341423	-16.065000	1352.859009
-14.341423	-16.065000	1353.502930
-13.341423	-16.065000	1353.132690
-12.341423	-16.065000	1352.679077
-11.341423	-16.065000	1353.225830
-10.341423	-16.065000	1353.035767
-9.341423	-16.065000	1353.001709
-8.341423	-16.065000	1352.055176
-7.341423	-16.065000	1352.499023
-6.341423	-16.065000	1354.065918
-5.341423	-16.065000	1353.103882
-4.341423	-16.065000	1354.320435
-3.341423	-16.065000	1357.793701
-2.341423	-16.065000	1357.653564
-1.341423	-16.065000	1355.880127
-0.341423	-16.065000	1354.888428
0.658577	-16.065000	1356.553101
1.658577	-16.065000	1355.848755
2.658577	-16.065000	1355.996948
3.658577	-16.065000	1359.132568
4.658577	-16.065000	1358.993164
5.658577	-16.065000	1352.488037
6.658577	-16.065000	1352.292480
7.658577	-16.065000	1353.914429
8.658577	-16.065000	1355.088501
9.658577	-16.065000	1353.445190
10.658577	-16.065000	1353.630005
11.658577	-16.065000	1354.184448
12.658577	-16.065000	1353.595581
13.658577	-16.065000	1352.883301
14.658577	-16.065000	1353.838013
15.658577	-16.065000	1352.941650
16.658577	-16.065000	1353.264282
17.658577	-16.065000	1354.574463
18.658577	-16.065000	1356.329224
19.658577	-16.065000	1352.688599
20.658577	-16.065000	1353.759033
21.658577	-16.065000	1353.039917
22.658577	-16.065000	1353.532104
23.658577	-16.065000	1353.094727
24.658577	-16.065000	1353.118774
-39.341423	-15.065000	1354.879883
-38.341423	-15.065000	1353.598389
-37.341423	-15.065000	1354.312622
-36.341423	-15.065000	1353.836182
-35.341423	-15.065000	1353.465698
-34.341423	-15.065000	1354.010376
-33.341423	-15.065000	1354.249512
-32.341423	-15.065000	1354.027832
-31.341423	-15.065000	1354.196899
-30.341423	-15.065000	1353.790039
-29.341423	-15.065000	1353.869263
-28.341423	-15.065000	1354.656738
-27.341423	-15.065000	1353.797241
-26.341423	-15.065000	1353.653809
-25.341423	-15.065000	1353.895386
-24.341423	-15.065000	1353.080444
-23.341423	-15.065000	1353.410767
-22.341423	-15.065000	1353.866577
-21.341423	-15.065000	1352.941040
-20.341423	-15.065000	1353.229980
-19.341423	-15.065000	1358.790161
-18.341423	-15.065000	1352.521729
-17.341423	-15.065000	1352.310425
-16.341423	-15.065000	1352.286987
-15.341423	-15.065000	1352.733154
-14.341423	-15.065000	1353.733887
-13.341423	-15.065000	1353.892822
-12.341423	-15.065000	1352.046265
-11.341423	-15.065000	1353.114868
-10.341423	-15.065000	1352.588257
-9.341423	-15.065000	1353.324829
-8.341423	-15.065000	1353.158447
-7.341423	-15.065000	1353.017578
-6.341423	-15.065000	1353.999878
-5.341423	-15.065000	1354.583008
-4.341423	-15.065000	1355.674927
-3.341423	-15.065000	1355.147461
-2.341423	-15.065000	1356.907593
-1.341423	-15.065000	1356.479858
-0.341423	-15.065000	1353.473022
0.658577	-15.065000	1354.343506
1.658577	-15.065000	1355.187744
2.658577	-15.065000	1353.555054
3.658577	-15.065000	1355.893799
4.658577	-15.065000	1355.416748
5.658577	-15.065000	1354.517334
6.658577	-15.065000	1353.193604
7.658577	-15.065000	1353.791504
8.658577	-15.065000	1353.553955
9.658577	-15.065000	1353.697388
10.658577	-15.065000	1352.648682
11.658577	-15.065000	1352.861328
12.658577	-15.065000	1352.953003
13.658577	-15.065000	1359.454224
14.658577	-15.065000	1355.033325
15.658577	-15.065000	1353.406738
16.658577	-15.065000	1350.739868
17.658577	-15.065000	1353.003540
18.658577	-15.065000	1356.408936
19.658577	-15.065000	1354.978638
20.658577	-15.065000	1355.493408
21.658577	-15.065000	1353.164063
22.658577	-15.065000	1353.044556
23.658577	-15.065000	1353.572998
24.658577	-15.065000	1352.590454
-39.341423	-14.065000	1354.505493
-38.341423	-14.065000	1355.497803
-37.341423	-14.065000	1353.159180
-36.341423	-14.065000	1353.199951
-35.341423	-14.065000	1353.155151
-34.341423	-14.065000	1353.834961
-33.341423	-14.065000	1353.671387
-32.341423	-14.065000	1353.719727
-31.341423	-14.065000	1353.071655
-30.341423	-14.065000	1353.277344
-29.341423	-14.065000	1354.959106
-28.341423	-14.065000	1354.424194
-27.341423	-14.065000	1353.650391
-26.341423	-14.065000	1353.924927
-25.341423	-14.065000	1353.909790
-24.341423	-14.065000	1354.437256
-23.341423	-14.065000	1354.138916
-22.341423	-14.065000	1353.656494
-21.341423	-14.065000	1353.653687
-20.341423	-14.065000	1352.595337
-19.341423	-14.065000	1355.368530
-18.341423	-14.065000	1354.309937
-17.341423	-14.065000	1352.591187
-16.341423	-14.065000	1353.569824
-15.341423	-14.065000	1352.636230
-14.341423	-14.065000	1352.286499
-13.341423	-14.065000	1353.995239
-12.341423	-14.065000	1353.083374
-11.341423	-14.065000	1353.398926
-10.341423	-14.065000	1353.280396
-9.341423	-14.065000	1353.674072
-8.341423	-14.065000	1353.342163
-7.341423	-14.065000	1353.598022
-6.341423	-14.065000	1354.209473
-5.341423	-14.065000	1354.024780
-4.341423	-14.065000	1353.611938
-3.341423	-14.065000	1354.385986
-2.341423	-14.065000	1354.357056
-1.341423	-14.065000	1354.801880
-0.341423	-14.065000	1353.926270
0.658577	-14.065000	1354.634033
1.658577	-14.065000	1356.320679
2.658577	-14.065000	1357.028809
3.658577	-14.065000	1358.994629
4.658577	-14.065000	1358.681885
5.658577	-14.065000	1356.766602
6.658577	-14.065000	1355.088989
7.658577	-14.065000	1353.690552
8.658577	-14.065000	1353.860352
9.658577	-14.065000	1354.910767
10.658577	-14.065000	1352.943115
11.658577	-14.065000	1355.605835
12.658577	-14.065000	1356.345337
13.658577	-14.065000	1353.303467
14.658577	-14.065000	1354.712402
15.658577	-14.065000	1355.858032
16.658577	-14.065000	1352.917847
17.658577	-14.065000	1358.008423
18.658577	-14.065000	1355.829956
19.658577	-14.065000	1355.984741
20.658577	-14.065000	1354.286743
21.658577	-14.065000	1352.211426
22.658577	-14.065000	1354.496216
23.658577	-14.065000	1353.782471
24.658577	-14.065000	1353.466309
-39.341423	-13.065000	1353.004761
-38.341423	-13.065000	1353.903809
-37.341423	-13.065000	1353.817627
-36.341423	-13.065000	1353.859863
-35.341423	-13.065000	1353.820313
-34.341423	-13.065000	1354.108643
-33.341423	-13.065000	1354.253784
-32.341423	-13.065000	1353.806885
-31.341423	-13.065000	1353.414673
-30.341423	-13.065000	1353.008179
-29.341423	-13.065000	1354.324097
-28.341423	-13.065000	1354.308960
-27.341423	-13.065000	1353.722656
-26.341423	-13.065000	1353.882813
-25.341423	-13.065000	1354.029785
-24.341423	-13.065000	1353.320557
-23.341423	-13.065000	1354.005981
-22.341423	-13.065000	1352.764771
-21.341423	-13.065000	1355.126709
-20.341423	-13.065000	1355.456177
-19.341423	-13.065000	1352.942383
-18.341423	-13.065000	1354.122803
-17.341423	-13.065000	1353.866211
-16.341423	-13.065000	1355.886841
-15.341423	-13.065000	1355.746704
-14.341423	-13.065000	1352.802856
-13.341423	-13.065000	1353.650757
-12.341423	-13.065000	1354.714722
-11.341423	-13.065000	1352.968384
-10.341423	-13.065000	1353.806885
-9.341423	-13.065000	1354.983276
-8.341423	-13.065000	1354.367310
-7.341423	-13.065000	1354.193848
-6.341423	-13.065000	1354.502808
-5.341423	-13.065000	1354.572632
-4.341423	-13.065000	1354.850342
-3.341423	-13.065000	1354.117554
-2.341423	-13.065000	1355.954590
-1.341423	-13.065000	1356.970215
-0.341423	-13.065000	1354.352295
0.658577	-13.065000	1354.684570
1.658577	-13.065000	1354.426514
2.658577	-13.065000	1355.105713
3.658577	-13.065000	1355.632568
4.658577	-13.065000	1356.556885
5.658577	-13.065000	1358.499756
6.658577	-13.065000	1355.711914
7.658577	-13.065000	1354.580322
8.658577	-13.065000	1354.453613
9.658577	-13.065000	1352.659668
10.658577	-13.065000	1354.281860
11.658577	-13.065000	1354.882324
12.658577	-13.065000	1352.908569
13.658577	-13.065000	1354.217041
14.658577	-13.065000	1354.412231
15.658577	-13.065000	1355.222900
16.658577	-13.065000	1353.331299
17.658577	-13.065000	1352.467773
18.658577	-13.065000	1353.967163
19.658577	-13.065000	1355.072144
20.658577	-13.065000	1353.274414
21.658577	-13.065000	1353.162109
22.658577	-13.065000	1355.239014
23.658577	-13.065000	1354.311523
24.658577	-13.065000	1355.626343
-39.341423	-12.065000	1354.227783
-38.341423	-12.065000	1353.087036
-37.341423	-12.065000	1354.077881
-36.341423	-12.065000	1353.856934
-35.341423	-12.065000	1353.364258
-34.341423	-12.065000	1353.921631
-33.341423	-12.065000	1354.542114
-32.341423	-12.065000	1353.705078
-31.341423	-12.065000	1352.569824
-30.341423	-12.065000	1353.931152
-29.341423	-12.065000	1353.304565
-28.341423	-12.065000	1352.442749
-27.341423	-12.065000	1353.565063
-26.341423	-12.065000	1353.764282
-25.341423	-12.065000	1352.889893
-24.341423	-12.065000	1352.832031
-23.341423	-12.065000	1353.696167
-22.341423	-12.065000	1353.146362
-21.341423	-12.065000	1353.689697
-20.341423	-12.065000	1358.668213
-19.341423	-12.065000	1356.615845
-18.341423	-12.065000	1355.014893
-17.341423	-12.065000	1355.579712
-16.341423	-12.065000	1354.591187
-15.341423	-12.065000	1356.154419
-14.341423	-12.065000	1356.106934
-13.341423	-12.065000	1355.317139
-12.341423	-12.065000	1352.574951
-11.341423	-12.065000	1354.265137
-10.341423	-12.065000	1354.092773
-9.341423	-12.065000	1353.243164
-8.341423	-12.065000	1353.894409
-7.341423	-12.065000	1355.397827
-6.341423	-12.065000	1354.469727
-5.341423	-12.065000	1354.028564
-4.341423	-12.065000	1355.426636
-3.341423	-12.065000	1354.230713
-2.341423	-12.065000	1355.148804
-1.341423	-12.065000	1355.076294
-0.341423	-12.065000	1355.317505
0.658577	-12.065000	1353.915283
1.658577	-12.065000	1355.395874
2.658577	-12.065000	1356.669312
3.658577	-12.065000	1355.128174
4.658577	-12.065000	1358.609497
5.658577	-12.065000	1357.340698
6.658577	-12.065000	1353.793457
7.658577	-12.065000	1354.153320
8.658577	-12.065000	1351.309692
9.658577	-12.065000	1353.218628
10.658577	-12.065000	1348.563721
11.658577	-12.065000	1353.551392
12.658577	-12.065000	1353.071655
13.658577	-12.065000	1353.978394
14.658577	-12.065000	1354.017700
15.658577	-12.065000	1352.690796
16.658577	-12.065000	1352.850708
17.658577	-12.065000	1353.352417
18.658577	-12.065000	1352.978271
19.658577	-12.065000	1353.124390
20.658577	-12.065000	1354.654053
21.658577	-12.065000	1356.307373
22.658577	-12.065000	1354.607300
23.658577	-12.065000	1355.212402
24.658577	-12.065000	1354.667480
-39.341423	-11.065000	1353.594849
-38.341423	-11.065000	1353.984253
-37.341423	-11.065000	1354.194336
-36.341423	-11.065000	1352.758179
-35.341423	-11.065000	1353.641235
-34.341423	-11.065000	1353.348877
-33.341423	-11.065000	1354.226074
-32.341423	-11.065000	1353.111694
-31.341423	-11.065000	1353.810791
-30.341423	-11.065000	1353.957764
-29.341423	-11.065000	1353.075562
-28.341423	-11.065000	1352.615845
-27.341423	-11.065000	1355.029541
-26.341423	-11.065000	1355.218140
-25.341423	-11.065000	1353.608398
-24.341423	-11.065000	1352.819092
-23.341423	-11.065000	1353.002075
-22.341423	-11.065000	1353.027222
-21.341423	-11.065000	1356.454956
-20.341423	-11.065000	1356.336426
-19.341423	-11.065000	1353.100586
-18.341423	-11.065000	1352.116943
-17.341423	-11.065000	1355.420898
-16.341423	-11.065000	1355.768311
-15.341423	-11.065000	1354.670166
-14.341423	-11.065000	1355.427612
-13.341423	-11.065000	1356.157227
-12.341423	-11.065000	1353.038696
-11.341423	-11.065000	1354.006348
-10.341423	-11.065000	1352.620850
-9.341423	-11.065000	1353.562744
-8.341423	-11.065000	1355.627075
-7.341423	-11.065000	1355.687500
-6.341423	-11.065000	1355.357178
-5.341423	-11.065000	1354.012695
-4.341423	-11.065000	1355.613770
-3.341423	-11.065000	1355.403809
-2.341423	-11.065000	1355.716797
-1.341423	-11.065000	1354.926758
-0.341423	-11.065000	1355.404053
0.658577	-11.065000	1356.353271
1.658577	-11.065000	1355.483032
2.658577	-11.065000	1353.120117
3.658577	-11.065000	1358.239868
4.658577	-11.065000	1359.533203
5.658577	-11.065000	1358.559326
6.658577	-11.065000	1354.567261
7.658577	-11.065000	1352.383545
8.658577	-11.065000	1351.996094
9.658577	-11.065000	1351.781372
10.658577	-11.065000	1320.000000
11.658577	-11.065000	1367.483032
12.658577	-11.065000	1359.794312
13.658577	-11.065000	1353.251465
14.658577	-11.065000	1352.735229
15.658577	-11.065000	1352.494629
16.658577	-11.065000	1353.158203
17.658577	-11.065000	1352.895386
18.658577	-11.065000	1354.923340
19.658577	-11.065000	1353.914673
20.658577	-11.065000	1354.604858
21.658577	-11.065000	1355.435059
22.658577	-11.065000	1354.965454
23.658577	-11.065000	1356.716797
24.658577	-11.065000	1353.655273
-39.341423	-10.065000	1354.022095
-38.341423	-10.065000	1354.207520
-37.341423	-10.065000	1353.809814
-36.341423	-10.065000	1353.326294
-35.341423	-10.065000	1353.473877
-34.341423	-10.065000	1353.752808
-33.341423	-10.065000	1354.265259
-32.341423	-10.065000	1353.867920
-31.341423	-10.065000	1353.220703
-30.341423	-10.065000	1353.385620
-29.341423	-10.065000	1352.347900
-28.341423	-10.065000	1352.888062
-27.341423	-10.065000	1353.208374
-26.341423	-10.065000	1354.870117
-25.341423	-10.065000	1354.815796
-24.341423	-10.065000	1353.358276
-23.341423	-10.065000	1352.915894
-22.341423	-10.065000	1352.712036
-21.341423	-10.065000	1353.980957
-20.341423	-10.065000	1353.765015
-19.341423	-10.065000	1354.261963
-18.341423	-10.065000	1352.950684
-17.341423	-10.065000	1354.692627
-16.341423	-10.065000	1355.266235
-15.341423	-10.065000	1356.282349
-14.341423	-10.065000	1355.468018
-13.341423	-10.065000	1354.317017
-12.341423	-10.065000	1354.168945
-11.341423	-10.065000	1354.760254
-10.341423	-10.065000	1356.446655
-9.341423	-10.065000	1351.231812
-8.341423	-10.065000	1354.952759
-7.341423	-10.065000	1357.617676
-6.341423	-10.065000	1357.210449
-5.341423	-10.065000	1355.186279
-4.341423	-10.065000	1356.150879
-3.341423	-10.065000	1358.029297
-2.341423	-10.065000	1356.861938
-1.341423	-10.065000	1356.743164
-0.341423	-10.065000	1356.476318
0.658577	-10.065000	1355.568726
1.658577	-10.065000	1354.102783
2.658577	-10.065000	1353.055420
3.658577	-10.065000	1358.101685
4.658577	-10.065000	1360.217896
5.658577	-10.065000	1357.716187
6.658577	-10.065000	1353.020996
7.658577	-10.065000	1352.722168
8.658577	-10.065000	1352.794312
9.658577	-10.065000	1370.069214
10.658577	-10.065000	1378.554077
11.658577	-10.065000	1337.619385
12.658577	-10.065000	1357.870972
13.658577	-10.065000	1355.719360
14.658577	-10.065000	1356.838257
15.658577	-10.065000	1353.530762
16.658577	-10.065000	1352.952393
17.658577	-10.065000	1354.697632
18.658577	-10.065000	1355.792236
19.658577	-10.065000	1353.163574
20.658577	-10.065000	1356.747803
21.658577	-10.065000	1355.858887
22.658577	-10.065000	1355.326172
23.658577	-10.065000	1355.379639
24.658577	-10.065000	1351.604370
-39.341423	-9.065000	1354.376587
-38.341423	-9.065000	1354.096191
-37.341423	-9.065000	1353.662476
-36.341423	-9.065000	1353.541138
-35.341423	-9.065000	1353.839722
-34.341423	-9.065000	1353.551270
-33.341423	-9.065000	1354.069336
-32.341423	-9.065000	1354.115234
-31.341423	-9.065000	1353.270386
-30.341423	-9.065000	1353.562134
-29.341423	-9.065000	1353.018188
-28.341423	-9.065000	1353.666504
-27.341423	-9.065000	1354.081421
-26.341423	-9.065000	1354.102417
-25.341423	-9.065000	1355.163940
-24.341423	-9.065000	1353.981201
-23.341423	-9.065000	1355.893799
-22.341423	-9.065000	1349.479980
-21.341423	-9.065000	1353.937500
-20.341423	-9.065000	1360.102051
-19.341423	-9.065000	1354.058716
-18.341423	-9.065000	1352.457642
-17.341423	-9.065000	1355.114624
-16.341423	-9.065000	1353.947144
-15.341423	-9.065000	1354.581299
-14.341423	-9.065000	1354.538940
-13.341423	-9.065000	1352.741821
-12.341423	-9.065000	1354.801025
-11.341423	-9.065000	1355.167969
-10.341423	-9.065000	1355.086304
-9.341423	-9.065000	1356.328857
-8.341423	-9.065000	1351.101074
-7.341423	-9.065000	1352.768188
-6.341423	-9.065000	1357.919312
-5.341423	-9.065000	1360.837402
-4.341423	-9.065000	1359.586914
-3.341423	-9.065000	1355.877930
-2.341423	-9.065000	1358.434082
-1.341423	-9.065000	1357.991455
-0.341423	-9.065000	1356.214722
0.658577	-9.065000	1353.794189
1.658577	-9.065000	1353.398438
2.658577	-9.065000	1354.458740
3.658577	-9.065000	1354.738770
4.658577	-9.065000	1355.410400
5.658577	-9.065000	1353.988037
6.658577	-9.065000	1353.401245
7.658577	-9.065000	1351.695190
8.658577	-9.065000	1350.691284
9.658577	-9.065000	1345.016113
10.658577	-9.065000	1346.302734
11.658577	-9.065000	1373.994263
12.658577	-9.065000	1355.237183
13.658577	-9.065000	1354.355591
14.658577	-9.065000	1353.999390
15.658577	-9.065000	1356.030640
16.658577	-9.065000	1356.034424
17.658577	-9.065000	1356.422729
18.658577	-9.065000	1354.566040
19.658577	-9.065000	1356.505981
20.658577	-9.065000	1357.397217
21.658577	-9.065000	1357.216309
22.658577	-9.065000	1355.634399
23.658577	-9.065000	1355.091309
24.658577	-9.065000	1356.537598
-39.341423	-8.065000	1352.806519
-38.341423	-8.065000	1353.764648
-37.341423	-8.065000	1354.863037
-36.341423	-8.065000	1353.468384
-35.341423	-8.065000	1353.999390
-34.341423	-8.065000	1353.337891
-33.341423	-8.065000	1354.044800
-32.341423	-8.065000	1353.819580
-31.341423	-8.065000	1352.563354
-30.341423	-8.065000	1353.907471
-29.341423	-8.065000	1352.949707
-28.341423	-8.065000	1354.519287
-27.341423	-8.065000	1353.402222
-26.341423	-8.065000	1356.340454
-25.341423	-8.065000	1353.065063
-24.341423	-8.065000	1355.056763
-23.341423	-8.065000	1353.034302
-22.341423	-8.065000	1361.581543
-21.341423	-8.065000	1357.050781
-20.341423	-8.065000	1358.229736
-19.341423	-8.065000	1355.058594
-18.341423	-8.065000	1355.170532
-17.341423	-8.065000	1353.506958
-16.341423	-8.065000	1353.271240
-15.341423	-8.065000	1353.063110
-14.341423	-8.065000	1353.315308
-13.341423	-8.065000	1353.688599
-12.341423	-8.065000	1353.889648
-11.341423	-8.065000	1353.348022
-10.341423	-8.065000	1353.598877
-9.341423	-8.065000	1355.508057
-8.341423	-8.065000	1352.211914
-7.341423	-8.065000	1354.644043
-6.341423	-8.065000	1357.329956
-5.341423	-8.065000	1355.204712
-4.341423	-8.065000	1355.400391
-3.341423	-8.065000	1358.974243
-2.341423	-8.065000	1355.758545
-1.341423	-8.065000	1355.311401
-0.341423	-8.065000	1354.903076
0.658577	-8.065000	1354.700317
1.658577	-8.065000	1353.609619
2.658577	-8.065000	1356.200928
3.658577	-8.065000	1353.652588
4.658577	-8.065000	1355.122070
5.658577	-8.065000	1353.930664
6.658577	-8.065000	1352.555542
7.658577	-8.065000	1352.702271
8.658577	-8.065000	1350.614014
9.658577	-8.065000	1336.675415
10.658577	-8.065000	1374.986938
11.658577	-8.065000	1344.129639
12.658577	-8.065000	1360.878418
13.658577	-8.065000	1357.997803
14.658577	-8.065000	1355.239258
15.658577	-8.065000	1354.202393
16.658577	-8.065000	1355.949707
17.658577	-8.065000	1355.809814
18.658577	-8.065000	1353.534546
19.658577	-8.065000	1356.617065
20.658577	-8.065000	1358.293701
21.658577	-8.065000	1354.064453
22.658577	-8.065000	1355.821167
23.658577	-8.065000	1354.045410
24.658577	-8.065000	1353.674316
-39.341423	-7.065000	1352.592773
-38.341423	-7.065000	1353.923096
-37.341423	-7.065000	1354.363037
-36.341423	-7.065000	1354.219238
-35.341423	-7.065000	1353.883911
-34.341423	-7.065000	1353.512573
-33.341423	-7.065000	1353.963379
-32.341423	-7.065000	1353.731201
-31.341423	-7.065000	1353.857666
-30.341423	-7.065000	1353.489258
-29.341423	-7.065000	1353.499512
-28.341423	-7.065000	1353.522217
-27.341423	-7.065000	1355.207886
-26.341423	-7.065000	1353.369751
-25.341423	-7.065000	1353.625488
-24.341423	-7.065000	1355.208984
-23.341423	-7.065000	1354.510986
-22.341423	-7.065000	1357.942871
-21.341423	-7.065000	1358.393555
-20.341423	-7.065000	1359.016113
-19.341423	-7.065000	1352.762573
-18.341423	-7.065000	1355.416138
-17.341423	-7.065000	1354.159546
-16.341423	-7.065000	1352.984497
-15.341423	-7.065000	1354.146729
-14.341423	-7.065000	1353.506104
-13.341423	-7.065000	1352.621094
-12.341423	-7.065000	1353.747192
-11.341423	-7.065000	1353.862793
-10.341423	-7.065000	1352.842651
-9.341423	-7.065000	1355.328247
-8.341423	-7.065000	1353.459351
-7.341423	-7.065000	1352.309448
-6.341423	-7.065000	1359.988403
-5.341423	-7.065000	1352.044678
-4.341423	-7.065000	1352.919922
-3.341423	-7.065000	1353.880371
-2.341423	-7.065000	1352.397461
-1.341423	-7.065000	1350.994629
-0.341423	-7.065000	1347.742432
0.658577	-7.065000	1355.761963
1.658577	-7.065000	1355.171875
2.658577	-7.065000	1353.307861
3.658577	-7.065000	1353.395874
4.658577	-7.065000	1353.857422
5.658577	-7.065000	1353.529541
6.658577	-7.065000	1353.552246
7.658577	-7.065000	1353.150146
8.658577	-7.065000	1349.648315
9.658577	-7.065000	1351.198486
10.658577	-7.065000	1353.761719
11.658577	-7.065000	1358.740356
12.658577	-7.065000	1358.827393
13.658577	-7.065000	1352.212036
14.658577	-7.065000	1352.274658
15.658577	-7.065000	1355.338135
16.658577	-7.065000	1354.944092
17.658577	-7.065000	1352.994751
18.658577	-7.065000	1352.517212
19.658577	-7.065000	1356.671265
20.658577	-7.065000	1356.100220
21.658577	-7.065000	1355.159546
22.658577	-7.065000	1353.299561
23.658577	-7.065000	1352.874268
24.658577	-7.065000	1354.113403
-39.341423	-6.065000	1353.009033
-38.341423	-6.065000	1354.018188
-37.341423	-6.065000	1353.729736
-36.341423	-6.065000	1353.792969
-35.341423	-6.065000	1354.169312
-34.341423	-6.065000	1354.024170
-33.341423	-6.065000	1353.666138
-32.341423	-6.065000	1354.306885
-31.341423	-6.065000	1354.287598
-30.341423	-6.065000	1354.628418
-29.341423	-6.065000	1354.162231
-28.341423	-6.065000	1352.872925
-27.341423	-6.065000	1353.968384
-26.341423	-6.065000	1352.593750
-25.341423	-6.065000	1353.344849
-24.341423	-6.065000	1353.114502
-23.341423	-6.065000	1356.198120
-22.341423	-6.065000	1352.859375
-21.341423	-6.065000	1352.802490
-20.341423	-6.065000	1352.062622
-19.341423	-6.065000	1349.879761
-18.341423	-6.065000	1359.723999
-17.341423	-6.065000	1357.481201
-16.341423	-6.065000	1354.953979
-15.341423	-6.065000	1353.924438
-14.341423	-6.065000	1353.540527
-13.341423	-6.065000	1353.108032
-12.341423	-6.065000	1353.625977
-11.341423	-6.065000	1353.764404
-10.341423	-6.065000	1354.213501
-9.341423	-6.065000	1355.270142
-8.341423	-6.065000	1355.269165
-7.341423	-6.065000	1353.490723
-6.341423	-6.065000	1354.879150
-5.341423	-6.065000	1358.722046
-4.341423	-6.065000	1364.407349
-3.341423	-6.065000	1359.484985
-2.341423	-6.065000	1351.916748
-1.341423	-6.065000	1352.732910
-0.341423	-6.065000	1367.796753
0.658577	-6.065000	1357.707642
1.658577	-6.065000	1355.553833
2.658577	-6.065000	1355.300293
3.658577	-6.065000	1352.775879
4.658577	-6.065000	1353.495361
5.658577	-6.065000	1352.518921
6.658577	-6.065000	1350.590576
7.658577	-6.065000	1352.399658
8.658577	-6.065000	1349.797974
9.658577	-6.065000	1361.018921
10.658577	-6.065000	1355.748779
11.658577	-6.065000	1356.465576
12.658577	-6.065000	1354.063843
13.658577	-6.065000	1352.058960
14.658577	-6.065000	1353.543701
15.658577	-6.065000	1354.918579
16.658577	-6.065000	1353.332031
17.658577	-6.065000	1354.484619
18.658577	-6.065000	1353.708008
19.658577	-6.065000	1354.962524
20.658577	-6.065000	1356.137329
21.658577	-6.065000	1355.767456
22.658577	-6.065000	1355.315796
23.658577	-6.065000	1353.810059
24.658577	-6.065000	1354.709717
-39.341423	-5.065000	1354.299561
-38.341423	-5.065000	1355.153076
-37.341423	-5.065000	1352.697144
-36.341423	-5.065000	1352.988037
-35.341423	-5.065000	1353.750366
-34.341423	-5.065000	1354.170288
-33.341423	-5.065000	1354.544678
-32.341423	-5.065000	1353.296875
-31.341423	-5.065000	1353.677368
-30.341423	-5.065000	1353.745483
-29.341423	-5.065000	1353.215332
-28.341423	-5.065000	1353.159424
-27.341423	-5.065000	1352.896240
-26.341423	-5.065000	1353.108643
-25.341423	-5.065000	1353.128052
-24.341423	-5.065000	1353.267944
-23.341423	-5.065000	1352.829346
-22.341423	-5.065000	1353.754150
-21.341423	-5.065000	1352.992798
-20.341423	-5.065000	1353.592163
-19.341423	-5.065000	1361.139160
-18.341423	-5.065000	1365.723145
-17.341423	-5.065000	1359.559448
-16.341423	-5.065000	1355.654785
-15.341423	-5.065000	1354.185547
-14.341423	-5.065000	1354.597778
-13.341423	-5.065000	1353.668823
-12.341423	-5.065000	1354.799561
-11.341423	-5.065000	1355.540527
-10.341423	-5.065000	1354.524292
-9.341423	-5.065000	1355.576660
-8.341423	-5.065000	1355.062744
-7.341423	-5.065000	1354.501587
-6.341423	-5.065000	1355.381836
-5.341423	-5.065000	1355.579956
-4.341423	-5.065000	1360.179932
-3.341423	-5.065000	1380.000000
-2.341423	-5.065000	1354.135010
-1.341423	-5.065000	1354.518677
-0.341423	-5.065000	1355.193848
0.658577	-5.065000	1353.708740
1.658577	-5.065000	1355.472290
2.658577	-5.065000	1357.908081
3.658577	-5.065000	1356.786133
4.658577	-5.065000	1352.500854
5.658577	-5.065000	1352.277954
6.658577	-5.065000	1354.312256
7.658577	-5.065000	1351.307739
8.658577	-5.065000	1350.178101
9.658577	-5.065000	1356.676514
10.658577	-5.065000	1353.601563
11.658577	-5.065000	1357.166260
12.658577	-5.065000	1354.966187
13.658577	-5.065000	1353.417480
14.658577	-5.065000	1353.818115
15.658577	-5.065000	1353.961182
16.658577	-5.065000	1352.954102
17.658577	-5.065000	1354.373901
18.658577	-5.065000	1354.243408
19.658577	-5.065000	1355.656738
20.658577	-5.065000	1355.006470
21.658577	-5.065000	1354.246094
22.658577	-5.065000	1356.764526
23.658577	-5.065000	1355.119751
24.658577	-5.065000	1356.227295
-39.341423	-4.065000	1374.778809
-38.341423	-4.065000	1357.231812
-37.341423	-4.065000	1352.448853
-36.341423	-4.065000	1352.742188
-35.341423	-4.065000	1354.259644
-34.341423	-4.065000	1354.131714
-33.341423	-4.065000	1354.526367
-32.341423	-4.065000	1353.408447
-31.341423	-4.065000	1353.778076
-30.341423	-4.065000	1355.088989
-29.341423	-4.065000	1354.035522
-28.341423	-4.065000	1354.332031
-27.341423	-4.065000	1353.920898
-26.341423	-4.065000	1353.296631
-25.341423	-4.065000	1353.939331
-24.341423	-4.065000	1354.176758
-23.341423	-4.065000	1353.198608
-22.341423	-4.065000	1353.816406
-21.341423	-4.065000	1354.053467
-20.341423	-4.065000	1354.144287
-19.341423	-4.065000	1354.202393
-18.341423	-4.065000	1356.902832
-17.341423	-4.065000	1358.624390
-16.341423	-4.065000	1355.912109
-15.341423	-4.065000	1355.440186
-14.341423	-4.065000	1354.477539
-13.341423	-4.065000	1354.807617
-12.341423	-4.065000	1353.939453
-11.341423	-4.065000	1356.258911
-10.341423	-4.065000	1356.499512
-9.341423	-4.065000	1355.357910
-8.341423	-4.065000	1355.434937
-7.341423	-4.065000	1354.898315
-6.341423	-4.065000	1355.405151
-5.341423	-4.065000	1354.593018
-4.341423	-4.065000	1356.675049
-3.341423	-4.065000	1346.202148
-2.341423	-4.065000	1352.542603
-1.341423	-4.065000	1354.747192
-0.341423	-4.065000	1355.381958
0.658577	-4.065000	1352.765991
1.658577	-4.065000	1353.063843
2.658577	-4.065000	1353.566162
3.658577	-4.065000	1362.010864
4.658577	-4.065000	1354.704102
5.658577	-4.065000	1353.412720
6.658577	-4.065000	1352.280518
7.658577	-4.065000	1352.735962
8.658577	-4.065000	1353.740845
9.658577	-4.065000	1352.729370
10.658577	-4.065000	1352.880981
11.658577	-4.065000	1354.925659
12.658577	-4.065000	1352.885620
13.658577	-4.065000	1353.185791
14.658577	-4.065000	1352.435913
15.658577	-4.065000	1355.381104
16.658577	-4.065000	1353.689087
17.658577	-4.065000	1351.949829
18.658577	-4.065000	1352.848389
19.658577	-4.065000	1352.371460
20.658577	-4.065000	1353.347412
21.658577	-4.065000	1352.485229
22.658577	-4.065000	1353.270508
23.658577	-4.065000	1356.069946
24.658577	-4.065000	1355.942261
-39.341423	-3.065000	1379.688232
-38.341423	-3.065000	1361.018433
-37.341423	-3.065000	1355.363770
-36.341423	-3.065000	1353.799194
-35.341423	-3.065000	1353.670166
-34.341423	-3.065000	1353.878418
-33.341423	-3.065000	1352.511475
-32.341423	-3.065000	1352.547241
-31.341423	-3.065000	1358.055054
-30.341423	-3.065000	1353.929077
-29.341423	-3.065000	1353.529907
-28.341423	-3.065000	1358.371948
-27.341423	-3.065000	1355.931396
-26.341423	-3.065000	1353.890747
-25.341423	-3.065000	1353.389160
-24.341423	-3.065000	1353.136597
-23.341423	-3.065000	1353.150513
-22.341423	-3.065000	1353.695068
-21.341423	-3.065000	1353.415894
-20.341423	-3.065000	1354.584595
-19.341423	-3.065000	1353.664307
-18.341423	-3.065000	1353.796631
-17.341423	-3.065000	1354.710693
-16.341423	-3.065000	1356.619019
-15.341423	-3.065000	1357.343018
-14.341423	-3.065000	1355.425903
-13.341423	-3.065000	1354.213013
-12.341423	-3.065000	1355.083740
-11.341423	-3.065000	1354.905640
-10.341423	-3.065000	1356.441772
-9.341423	-3.065000	1356.145142
-8.341423	-3.065000	1356.307617
-7.341423	-3.065000	1356.425903
-6.341423	-3.065000	1356.222412
-5.341423	-3.065000	1356.562500
-4.341423	-3.065000	1356.340698
-3.341423	-3.065000	1355.169800
-2.341423	-3.065000	1353.069580
-1.341423	-3.065000	1351.844604
-0.341423	-3.065000	1351.756836
0.658577	-3.065000	1351.822510
1.658577	-3.065000	1353.324097
2.658577	-3.065000	1360.327637
3.658577	-3.065000	1353.367920
4.658577	-3.065000	1354.477051
5.658577	-3.065000	1355.730713
6.658577	-3.065000	1354.105713
7.658577	-3.065000	1353.665405
8.658577	-3.065000	1354.213257
9.658577	-3.065000	1352.785645
10.658577	-3.065000	1353.680664
11.658577	-3.065000	1354.732910
12.658577	-3.065000	1354.059814
13.658577	-3.065000	1352.095215
14.658577	-3.065000	1353.120972
15.658577	-3.065000	1353.673462
16.658577	-3.065000	1352.045410
17.658577	-3.065000	1351.628174
18.658577	-3.065000	1352.560791
19.658577	-3.065000	1351.927734
20.658577	-3.065000	1353.409424
21.658577	-3.065000	1351.820190
22.658577	-3.065000	1353.821777
23.658577	-3.065000	1355.474365
24.658577	-3.065000	1356.042725
-39.341423	-2.065000	1357.789185
-38.341423	-2.065000	1354.428955
-37.341423	-2.065000	1354.404419
-36.341423	-2.065000	1353.896118
-35.341423	-2.065000	1356.067871
-34.341423	-2.065000	1354.611572
-33.341423	-2.065000	1356.721802
-32.341423	-2.065000	1355.339111
-31.341423	-2.065000	1353.968628
-30.341423	-2.065000	1351.567139
-29.341423	-2.065000	1352.118652
-28.341423	-2.065000	1342.021118
-27.341423	-2.065000	1358.256714
-26.341423	-2.065000	1353.163330
-25.341423	-2.065000	1353.527222
-24.341423	-2.065000	1353.696167
-23.341423	-2.065000	1354.307373
-22.341423	-2.065000	1353.316284
-21.341423	-2.065000	1354.280396
-20.341423	-2.065000	1353.943359
-19.341423	-2.065000	1353.498535
-18.341423	-2.065000	1354.332886
-17.341423	-2.065000	1358.239014
-16.341423	-2.065000	1355.454224
-15.341423	-2.065000	1354.324707
-14.341423	-2.065000	1354.716309
-13.341423	-2.065000	1353.594727
-12.341423	-2.065000	1354.160645
-11.341423	-2.065000	1355.741699
-10.341423	-2.065000	1355.855347
-9.341423	-2.065000	1355.660400
-8.341423	-2.065000	1356.048218
-7.341423	-2.065000	1355.035034
-6.341423	-2.065000	1356.662109
-5.341423	-2.065000	1355.515747
-4.341423	-2.065000	1358.025269
-3.341423	-2.065000	1356.549072
-2.341423	-2.065000	1353.254028
-1.341423	-2.065000	1352.410645
-0.341423	-2.065000	1352.208740
0.658577	-2.065000	1352.139648
1.658577	-2.065000	1352.538330
2.658577	-2.065000	1356.668091
3.658577	-2.065000	1351.417236
4.658577	-2.065000	1356.911865
5.658577	-2.065000	1353.858032
6.658577	-2.065000	1352.661255
7.658577	-2.065000	1354.958618
8.658577	-2.065000	1353.163330
9.658577	-2.065000	1353.783691
10.658577	-2.065000	1352.688721
11.658577	-2.065000	1354.567749
12.658577	-2.065000	1354.668457
13.658577	-2.065000	1353.844116
14.658577	-2.065000	1353.493286
15.658577	-2.065000	1352.798706
16.658577	-2.065000	1352.949707
17.658577	-2.065000	1352.028687
18.658577	-2.065000	1354.658203
19.658577	-2.065000	1350.822632
20.658577	-2.065000	1352.197754
21.658577	-2.065000	1352.340088
22.658577	-2.065000	1354.946533
23.658577	-2.065000	1355.057373
24.658577	-2.065000	1357.556885
-39.341423	-1.065000	1367.736694
-38.341423	-1.065000	1358.338257
-37.341423	-1.065000	1354.784790
-36.341423	-1.065000	1355.768555
-35.341423	-1.065000	1356.559204
-34.341423	-1.065000	1362.054932
-33.341423	-1.065000	1355.715210
-32.341423	-1.065000	1354.160278
-31.341423	-1.065000	1355.565918
-30.341423	-1.065000	1355.138794
-29.341423	-1.065000	1351.885864
-28.341423	-1.065000	1346.221558
-27.341423	-1.065000	1358.690674
-26.341423	-1.065000	1353.954956
-25.341423	-1.065000	1352.748535
-24.341423	-1.065000	1354.132202
-23.341423	-1.065000	1355.968140
-22.341423	-1.065000	1353.351807
-21.341423	-1.065000	1355.319336
-20.341423	-1.065000	1356.539307
-19.341423	-1.065000	1354.405396
-18.341423	-1.065000	1356.620972
-17.341423	-1.065000	1356.581055
-16.341423	-1.065000	1355.804443
-15.341423	-1.065000	1354.489990
-14.341423	-1.065000	1354.544067
-13.341423	-1.065000	1353.930420
-12.341423	-1.065000	1354.410278
-11.341423	-1.065000	1355.025391
-10.341423	-1.065000	1356.468140
-9.341423	-1.065000	1355.664795
-8.341423	-1.065000	1356.348389
-7.341423	-1.065000	1356.409302
-6.341423	-1.065000	1356.742065
-5.341423	-1.065000	1355.322754
-4.341423	-1.065000	1356.133057
-3.341423	-1.065000	1357.658203
-2.341423	-1.065000	1353.177124
-1.341423	-1.065000	1353.214600
-0.341423	-1.065000	1351.807373
0.658577	-1.065000	1351.976196
1.658577	-1.065000	1352.376465
2.658577	-1.065000	1353.103271
3.658577	-1.065000	1353.962036
4.658577	-1.065000	1354.617188
5.658577	-1.065000	1353.546265
6.658577	-1.065000	1355.097778
7.658577	-1.065000	1352.964966
8.658577	-1.065000	1355.952515
9.658577	-1.065000	1354.384766
10.658577	-1.065000	1352.633057
11.658577	-1.065000	1355.193604
12.658577	-1.065000	1354.721924
13.658577	-1.065000	1353.178711
14.658577	-1.065000	1352.611206
15.658577	-1.065000	1353.336914
16.658577	-1.065000	1353.032349
17.658577	-1.065000	1353.125366
18.658577	-1.065000	1354.218872
19.658577	-1.065000	1352.708374
20.658577	-1.065000	1351.951416
21.658577	-1.065000	1351.300781
22.658577	-1.065000	1354.034790
23.658577	-1.065000	1353.458740
24.658577	-1.065000	1356.170288
-39.341423	-0.065000	1357.441895
-38.341423	-0.065000	1359.532593
-37.341423	-0.065000	1349.600708
-36.341423	-0.065000	1361.155029
-35.341423	-0.065000	1363.348755
-34.341423	-0.065000	1361.076782
-33.341423	-0.065000	1358.112183
-32.341423	-0.065000	1356.938965
-31.341423	-0.065000	1356.225586
-30.341423	-0.065000	1360.152954
-29.341423	-0.065000	1354.993408
-28.341423	-0.065000	1359.661499
-27.341423	-0.065000	1378.615356
-26.341423	-0.065000	1356.352539
-25.341423	-0.065000	1355.595947
-24.341423	-0.065000	1352.437866
-23.341423	-0.065000	1354.327271
-22.341423	-0.065000	1353.884155
-21.341423	-0.065000	1354.616333
-20.341423	-0.065000	1357.176880
-19.341423	-0.065000	1352.822510
-18.341423	-0.065000	1353.978882
-17.341423	-0.065000	1357.779175
-16.341423	-0.065000	1354.569214
-15.341423	-0.065000	1357.771606
-14.341423	-0.065000	1354.169800
-13.341423	-0.065000	1354.256226
-12.341423	-0.065000	1355.049927
-11.341423	-0.065000	1354.777222
-10.341423	-0.065000	1355.677979
-9.341423	-0.065000	1356.258789
-8.341423	-0.065000	1355.531128
-7.341423	-0.065000	1356.771240
-6.341423	-0.065000	1355.457275
-5.341423	-0.065000	1355.707153
-4.341423	-0.065000	1357.150757
-3.341423	-0.065000	1354.709351
-2.341423	-0.065000	1352.750122
-1.341423	-0.065000	1352.793091
-0.341423	-0.065000	1351.517822
0.658577	-0.065000	1352.057251
1.658577	-0.065000	1351.656860
2.658577	-0.065000	1353.718018
3.658577	-0.065000	1353.620117
4.658577	-0.065000	1355.177856
5.658577	-0.065000	1354.510132
6.658577	-0.065000	1355.434814
7.658577	-0.065000	1354.568115
8.658577	-0.065000	1355.433350
9.658577	-0.065000	1352.457397
10.658577	-0.065000	1354.675415
11.658577	-0.065000	1354.467041
12.658577	-0.065000	1354.032715
13.658577	-0.065000	1353.440796
14.658577	-0.065000	1354.134033
15.658577	-0.065000	1353.682983
16.658577	-0.065000	1353.281860
17.658577	-0.065000	1353.973633
18.658577	-0.065000	1353.843018
19.658577	-0.065000	1355.516602
20.658577	-0.065000	1351.395386
21.658577	-0.065000	1351.203003
22.658577	-0.065000	1351.739258
23.658577	-0.065000	1355.191650
24.658577	-0.065000	1357.413086
-39.341423	0.935000	1361.782227
-38.341423	0.935000	1354.577393
-37.341423	0.935000	1380.000000
-36.341423	0.935000	1357.673096
-35.341423	0.935000	1359.443848
-34.341423	0.935000	1358.326538
-33.341423	0.935000	1357.184937
-32.341423	0.935000	1355.482544
-31.341423	0.935000	1354.496704
-30.341423	0.935000	1354.041138
-29.341423	0.935000	1353.016235
-28.341423	0.935000	1368.936401
-27.341423	0.935000	1354.401489
-26.341423	0.935000	1357.273315
-25.341423	0.935000	1354.440308
-24.341423	0.935000	1353.970825
-23.341423	0.935000	1353.769775
-22.341423	0.935000	1354.673340
-21.341423	0.935000	1353.105347
-20.341423	0.935000	1354.882202
-19.341423	0.935000	1352.618286
-18.341423	0.935000	1355.458374
-17.341423	0.935000	1356.814697
-16.341423	0.935000	1353.818237
-15.341423	0.935000	1358.357056
-14.341423	0.935000	1353.727295
-13.341423	0.935000	1354.307861
-12.341423	0.935000	1354.382446
-11.341423	0.935000	1355.324341
-10.341423	0.935000	1355.181396
-9.341423	0.935000	1354.886353
-8.341423	0.935000	1355.804077
-7.341423	0.935000	1355.741577
-6.341423	0.935000	1354.965698
-5.341423	0.935000	1355.428101
-4.341423	0.935000	1354.342285
-3.341423	0.935000	1355.056885
-2.341423	0.935000	1352.551147
-1.341423	0.935000	1352.370605
-0.341423	0.935000	1351.768921
0.658577	0.935000	1351.749268
1.658577	0.935000	1352.382935
2.658577	0.935000	1353.951294
3.658577	0.935000	1353.554932
4.658577	0.935000	1354.535522
5.658577	0.935000	1355.062866
6.658577	0.935000	1354.379517
7.658577	0.935000	1352.889893
8.658577	0.935000	1353.215576
9.658577	0.935000	1353.625854
10.658577	0.935000	1353.426147
11.658577	0.935000	1352.411255
12.658577	0.935000	1353.918579
13.658577	0.935000	1352.748901
14.658577	0.935000	1355.401245
15.658577	0.935000	1354.167480
16.658577	0.935000	1353.418457
17.658577	0.935000	1352.512695
18.658577	0.935000	1353.080688
19.658577	0.935000	1351.205811
20.658577	0.935000	1350.917236
21.658577	0.935000	1351.819092
22.658577	0.935000	1352.047607
23.658577	0.935000	1352.511108
24.658577	0.935000	1355.369507
-39.341423	1.935000	1359.046021
-38.341423	1.935000	1363.451416
-37.341423	1.935000	1360.333374
-36.341423	1.935000	1357.665649
-35.341423	1.935000	1355.169678
-34.341423	1.935000	1358.438721
-33.341423	1.935000	1356.207642
-32.341423	1.935000	1353.147217
-31.341423	1.935000	1353.826416
-30.341423	1.935000	1353.715698
-29.341423	1.935000	1354.506470
-28.341423	1.935000	1358.188599
-27.341423	1.935000	1358.447998
-26.341423	1.935000	1354.246826
-25.341423	1.935000	1355.610718
-24.341423	1.935000	1354.932129
-23.341423	1.935000	1355.316162
-22.341423	1.935000	1353.010254
-21.341423	1.935000	1354.387573
-20.341423	1.935000	1352.977539
-19.341423	1.935000	1353.837524
-18.341423	1.935000	1354.825562
-17.341423	1.935000	1353.791138
-16.341423	1.935000	1362.594482
-15.341423	1.935000	1357.798096
-14.341423	1.935000	1354.699463
-13.341423	1.935000	1355.129517
-12.341423	1.935000	1355.553955
-11.341423	1.935000	1355.422607
-10.341423	1.935000	1354.388672
-9.341423	1.935000	1353.999878
-8.341423	1.935000	1354.009644
-7.341423	1.935000	1354.775269
-6.341423	1.935000	1354.740112
-5.341423	1.935000	1354.267090
-4.341423	1.935000	1353.420166
-3.341423	1.935000	1352.591309
-2.341423	1.935000	1352.955322
-1.341423	1.935000	1352.726196
-0.341423	1.935000	1352.187622
0.658577	1.935000	1351.476685
1.658577	1.935000	1353.597046
2.658577	1.935000	1354.382690
3.658577	1.935000	1355.182495
4.658577	1.935000	1357.307373
5.658577	1.935000	1353.742432
6.658577	1.935000	1352.762085
7.658577	1.935000	1352.041016
8.658577	1.935000	1355.976563
9.658577	1.935000	1352.417236
10.658577	1.935000	1352.230957
11.658577	1.935000	1352.034912
12.658577	1.935000	1352.651855
13.658577	1.935000	1352.992432
14.658577	1.935000	1354.528198
15.658577	1.935000	1353.161743
16.658577	1.935000	1353.400146
17.658577	1.935000	1353.631226
18.658577	1.935000	1354.192383
19.658577	1.935000	1352.360229
20.658577	1.935000	1350.917236
21.658577	1.935000	1351.186401
22.658577	1.935000	1351.712891
23.658577	1.935000	1352.103638
24.658577	1.935000	1352.617798
-39.341423	2.935000	1357.792480
-38.341423	2.935000	1358.182617
-37.341423	2.935000	1354.540161
-36.341423	2.935000	1355.141602
-35.341423	2.935000	1354.576172
-34.341423	2.935000	1355.085815
-33.341423	2.935000	1357.088745
-32.341423	2.935000	1354.385620
-31.341423	2.935000	1353.392334
-30.341423	2.935000	1353.987915
-29.341423	2.935000	1353.895020
-28.341423	2.935000	1356.827026
-27.341423	2.935000	1356.363403
-26.341423	2.935000	1356.878174
-25.341423	2.935000	1356.171997
-24.341423	2.935000	1355.770020
-23.341423	2.935000	1353.530884
-22.341423	2.935000	1355.086914
-21.341423	2.935000	1353.601929
-20.341423	2.935000	1354.048096
-19.341423	2.935000	1352.541626
-18.341423	2.935000	1356.529175
-17.341423	2.935000	1355.172363
-16.341423	2.935000	1380.000000
-15.341423	2.935000	1362.849121
-14.341423	2.935000	1356.411377
-13.341423	2.935000	1356.399048
-12.341423	2.935000	1355.247681
-11.341423	2.935000	1355.591187
-10.341423	2.935000	1354.653198
-9.341423	2.935000	1354.660034
-8.341423	2.935000	1355.385498
-7.341423	2.935000	1354.666138
-6.341423	2.935000	1354.772461
-5.341423	2.935000	1353.789063
-4.341423	2.935000	1353.203613
-3.341423	2.935000	1352.689453
-2.341423	2.935000	1353.619263
-1.341423	2.935000	1352.752075
-0.341423	2.935000	1353.059814
0.658577	2.935000	1352.206055
1.658577	2.935000	1353.972656
2.658577	2.935000	1354.833374
3.658577	2.935000	1356.028076
4.658577	2.935000	1357.352539
5.658577	2.935000	1353.512329
6.658577	2.935000	1355.152954
7.658577	2.935000	1357.073486
8.658577	2.935000	1354.238525
9.658577	2.935000	1353.002808
10.658577	2.935000	1351.901611
11.658577	2.935000	1352.644531
12.658577	2.935000	1351.888428
13.658577	2.935000	1353.958130
14.658577	2.935000	1353.353271
15.658577	2.935000	1352.021729
16.658577	2.935000	1353.114868
17.658577	2.935000	1354.171021
18.658577	2.935000	1353.623169
19.658577	2.935000	1353.367310
20.658577	2.935000	1353.841187
21.658577	2.935000	1350.711060
22.658577	2.935000	1351.454712
23.658577	2.935000	1352.924683
24.658577	2.935000	1352.574707
-39.341423	3.935000	1356.943115
-38.341423	3.935000	1354.193115
-37.341423	3.935000	1355.358887
-36.341423	3.935000	1355.811890
-35.341423	3.935000	1355.006104
-34.341423	3.935000	1356.167114
-33.341423	3.935000	1359.555908
-32.341423	3.935000	1356.055176
-31.341423	3.935000	1353.666138
-30.341423	3.935000	1353.738647
-29.341423	3.935000	1354.749634
-28.341423	3.935000	1356.764038
-27.341423	3.935000	1355.599365
-26.341423	3.935000	1354.363525
-25.341423	3.935000	1356.096191
-24.341423	3.935000	1354.373169
-23.341423	3.935000	1353.132324
-22.341423	3.935000	1355.430054
-21.341423	3.935000	1354.881592
-20.341423	3.935000	1353.626953
-19.341423	3.935000	1355.445435
-18.341423	3.935000	1354.924805
-17.341423	3.935000	1352.825317
-16.341423	3.935000	1353.993896
-15.341423	3.935000	1356.215210
-14.341423	3.935000	1364.275269
-13.341423	3.935000	1358.911865
-12.341423	3.935000	1354.219482
-11.341423	3.935000	1355.318359
-10.341423	3.935000	1354.475586
-9.341423	3.935000	1355.545532
-8.341423	3.935000	1358.504883
-7.341423	3.935000	1356.268921
-6.341423	3.935000	1356.197510
-5.341423	3.935000	1353.448242
-4.341423	3.935000	1353.534912
-3.341423	3.935000	1352.902222
-2.341423	3.935000	1352.367676
-1.341423	3.935000	1352.222412
-0.341423	3.935000	1351.446655
0.658577	3.935000	1352.343384
1.658577	3.935000	1352.388184
2.658577	3.935000	1354.032837
3.658577	3.935000	1356.585083
4.658577	3.935000	1357.003174
5.658577	3.935000	1353.490112
6.658577	3.935000	1354.150269
7.658577	3.935000	1356.386841
8.658577	3.935000	1353.066284
9.658577	3.935000	1352.484131
10.658577	3.935000	1353.627930
11.658577	3.935000	1353.969360
12.658577	3.935000	1352.598389
13.658577	3.935000	1353.080811
14.658577	3.935000	1353.600830
15.658577	3.935000	1353.101440
16.658577	3.935000	1353.399170
17.658577	3.935000	1353.620728
18.658577	3.935000	1352.713501
19.658577	3.935000	1352.374756
20.658577	3.935000	1352.563232
21.658577	3.935000	1351.364502
22.658577	3.935000	1352.762207
23.658577	3.935000	1351.863770
24.658577	3.935000	1352.747803
-39.341423	4.935000	1354.944458
-38.341423	4.935000	1354.764160
-37.341423	4.935000	1354.696655
-36.341423	4.935000	1354.994507
-35.341423	4.935000	1353.982300
-34.341423	4.935000	1353.736694
-33.341423	4.935000	1355.656494
-32.341423	4.935000	1356.001953
-31.341423	4.935000	1353.343750
-30.341423	4.935000	1353.907104
-29.341423	4.935000	1353.770630
-28.341423	4.935000	1354.324585
-27.341423	4.935000	1354.351440
-26.341423	4.935000	1354.916016
-25.341423	4.935000	1355.926636
-24.341423	4.935000	1354.609497
-23.341423	4.935000	1356.028564
-22.341423	4.935000	1353.999268
-21.341423	4.935000	1355.480103
-20.341423	4.935000	1355.484009
-19.341423	4.935000	1352.981201
-18.341423	4.935000	1352.559814
-17.341423	4.935000	1352.553589
-16.341423	4.935000	1352.443115
-15.341423	4.935000	1354.462158
-14.341423	4.935000	1354.085205
-13.341423	4.935000	1355.448730
-12.341423	4.935000	1354.920410
-11.341423	4.935000	1353.667236
-10.341423	4.935000	1355.904785
-9.341423	4.935000	1354.934204
-8.341423	4.935000	1356.285889
-7.341423	4.935000	1355.001953
-6.341423	4.935000	1355.077759
-5.341423	4.935000	1354.767334
-4.341423	4.935000	1354.742432
-3.341423	4.935000	1351.555298
-2.341423	4.935000	1351.702271
-1.341423	4.935000	1352.233032
-0.341423	4.935000	1352.249878
0.658577	4.935000	1351.914551
1.658577	4.935000	1351.592407
2.658577	4.935000	1353.609253
3.658577	4.935000	1356.953247
4.658577	4.935000	1355.239990
5.658577	4.935000	1354.432983
6.658577	4.935000	1354.382568
7.658577	4.935000	1353.734985
8.658577	4.935000	1353.824951
9.658577	4.935000	1352.732300
10.658577	4.935000	1353.777954
11.658577	4.935000	1354.307739
12.658577	4.935000	1352.797974
13.658577	4.935000	1353.962280
14.658577	4.935000	1353.302002
15.658577	4.935000	1352.841675
16.658577	4.935000	1351.989502
17.658577	4.935000	1352.180908
18.658577	4.935000	1352.557129
19.658577	4.935000	1352.355469
20.658577	4.935000	1353.575806
21.658577	4.935000	1351.887573
22.658577	4.935000	1352.853394
23.658577	4.935000	1353.056885
24.658577	4.935000	1351.466797
-39.341423	5.935000	1354.923584
-38.341423	5.935000	1354.339111
-37.341423	5.935000	1355.003296
-36.341423	5.935000	1354.364380
-35.341423	5.935000	1354.222168
-34.341423	5.935000	1352.664429
-33.341423	5.935000	1353.619263
-32.341423	5.935000	1354.250488
-31.341423	5.935000	1354.448242
-30.341423	5.935000	1354.800903
-29.341423	5.935000	1352.690796
-28.341423	5.935000	1352.968506
-27.341423	5.935000	1360.546021
-26.341423	5.935000	1354.338257
-25.341423	5.935000	1355.512451
-24.341423	5.935000	1355.427246
-23.341423	5.935000	1354.816650
-22.341423	5.935000	1354.270020
-21.341423	5.935000	1354.628174
-20.341423	5.935000	1355.868042
-19.341423	5.935000	1352.510620
-18.341423	5.935000	1352.307251
-17.341423	5.935000	1352.618896
-16.341423	5.935000	1352.804810
-15.341423	5.935000	1355.817993
-14.341423	5.935000	1355.741577
-13.341423	5.935000	1355.160034
-12.341423	5.935000	1354.587402
-11.341423	5.935000	1353.312012
-10.341423	5.935000	1354.893066
-9.341423	5.935000	1354.560181
-8.341423	5.935000	1355.509644
-7.341423	5.935000	1356.844727
-6.341423	5.935000	1355.676758
-5.341423	5.935000	1356.150391
-4.341423	5.935000	1357.606445
-3.341423	5.935000	1352.860962
-2.341423	5.935000	1351.741943
-1.341423	5.935000	1352.343384
-0.341423	5.935000	1351.894043
0.658577	5.935000	1352.184692
1.658577	5.935000	1352.690796
2.658577	5.935000	1353.717529
3.658577	5.935000	1352.545410
4.658577	5.935000	1353.712036
5.658577	5.935000	1354.876831
6.658577	5.935000	1354.173462
7.658577	5.935000	1353.466919
8.658577	5.935000	1354.871338
9.658577	5.935000	1353.907471
10.658577	5.935000	1354.062866
11.658577	5.935000	1353.666260
12.658577	5.935000	1354.194458
13.658577	5.935000	1354.362427
14.658577	5.935000	1353.226563
15.658577	5.935000	1352.680542
16.658577	5.935000	1353.307373
17.658577	5.935000	1353.529541
18.658577	5.935000	1352.213013
19.658577	5.935000	1351.766357
20.658577	5.935000	1353.554321
21.658577	5.935000	1352.377930
22.658577	5.935000	1351.593140
23.658577	5.935000	1354.534790
24.658577	5.935000	1353.366455
-39.341423	6.935000	1354.851440
-38.341423	6.935000	1353.755493
-37.341423	6.935000	1354.598999
-36.341423	6.935000	1354.818970
-35.341423	6.935000	1353.998901
-34.341423	6.935000	1353.955322
-33.341423	6.935000	1353.364014
-32.341423	6.935000	1353.977905
-31.341423	6.935000	1353.620728
-30.341423	6.935000	1352.368652
-29.341423	6.935000	1351.413574
-28.341423	6.935000	1358.148682
-27.341423	6.935000	1355.976196
-26.341423	6.935000	1355.558716
-25.341423	6.935000	1355.408569
-24.341423	6.935000	1355.189697
-23.341423	6.935000	1354.316406
-22.341423	6.935000	1356.182861
-21.341423	6.935000	1354.566406
-20.341423	6.935000	1352.734497
-19.341423	6.935000	1352.503174
-18.341423	6.935000	1352.386963
-17.341423	6.935000	1352.641235
-16.341423	6.935000	1353.321411
-15.341423	6.935000	1355.223022
-14.341423	6.935000	1355.379883
-13.341423	6.935000	1354.218994
-12.341423	6.935000	1356.260498
-11.341423	6.935000	1354.354858
-10.341423	6.935000	1354.798706
-9.341423	6.935000	1354.293335
-8.341423	6.935000	1353.384277
-7.341423	6.935000	1355.135376
-6.341423	6.935000	1355.628906
-5.341423	6.935000	1355.193604
-4.341423	6.935000	1356.832153
-3.341423	6.935000	1353.400513
-2.341423	6.935000	1352.504639
-1.341423	6.935000	1352.098755
-0.341423	6.935000	1352.785645
0.658577	6.935000	1352.108887
1.658577	6.935000	1352.660522
2.658577	6.935000	1353.113403
3.658577	6.935000	1356.095581
4.658577	6.935000	1353.913940
5.658577	6.935000	1355.854248
6.658577	6.935000	1354.438965
7.658577	6.935000	1353.459717
8.658577	6.935000	1354.080933
9.658577	6.935000	1355.153931
10.658577	6.935000	1354.697998
11.658577	6.935000	1353.442383
12.658577	6.935000	1353.690552
13.658577	6.935000	1352.680664
14.658577	6.935000	1356.766968
15.658577	6.935000	1353.221436
16.658577	6.935000	1353.412109
17.658577	6.935000	1353.585571
18.658577	6.935000	1351.689575
19.658577	6.935000	1353.679932
20.658577	6.935000	1352.493042
21.658577	6.935000	1352.647827
22.658577	6.935000	1356.017700
23.658577	6.935000	1354.360962
24.658577	6.935000	1353.283569
-39.341423	7.935000	1353.871216
-38.341423	7.935000	1353.673218
-37.341423	7.935000	1353.855591
-36.341423	7.935000	1353.910400
-35.341423	7.935000	1354.075439
-34.341423	7.935000	1354.490479
-33.341423	7.935000	1353.899536
-32.341423	7.935000	1353.423218
-31.341423	7.935000	1352.935669
-30.341423	7.935000	1354.108398
-29.341423	7.935000	1352.935791
-28.341423	7.935000	1355.062012
-27.341423	7.935000	1354.987793
-26.341423	7.935000	1355.366211
-25.341423	7.935000	1354.579590
-24.341423	7.935000	1354.552979
-23.341423	7.935000	1354.620117
-22.341423	7.935000	1354.454834
-21.341423	7.935000	1355.354614
-20.341423	7.935000	1355.318237
-19.341423	7.935000	1353.948242
-18.341423	7.935000	1353.479126
-17.341423	7.935000	1354.316284
-16.341423	7.935000	1354.223633
-15.341423	7.935000	1355.183594
-14.341423	7.935000	1353.976807
-13.341423	7.935000	1354.142456
-12.341423	7.935000	1354.867798
-11.341423	7.935000	1354.548096
-10.341423	7.935000	1354.288574
-9.341423	7.935000	1353.810425
-8.341423	7.935000	1353.977051
-7.341423	7.935000	1353.652100
-6.341423	7.935000	1355.473389
-5.341423	7.935000	1354.298340
-4.341423	7.935000	1354.851929
-3.341423	7.935000	1353.096680
-2.341423	7.935000	1353.072998
-1.341423	7.935000	1352.279785
-0.341423	7.935000	1352.381714
0.658577	7.935000	1352.024780
1.658577	7.935000	1353.611450
2.658577	7.935000	1353.809082
3.658577	7.935000	1353.801514
4.658577	7.935000	1354.184204
5.658577	7.935000	1355.072632
6.658577	7.935000	1357.059937
7.658577	7.935000	1354.196655
8.658577	7.935000	1353.173096
9.658577	7.935000	1354.801025
10.658577	7.935000	1353.652344
11.658577	7.935000	1354.816895
12.658577	7.935000	1353.333008
13.658577	7.935000	1352.008545
14.658577	7.935000	1352.744385
15.658577	7.935000	1352.812866
16.658577	7.935000	1352.165283
17.658577	7.935000	1353.951294
18.658577	7.935000	1350.591064
19.658577	7.935000	1358.000854
20.658577	7.935000	1355.023193
21.658577	7.935000	1352.397095
22.658577	7.935000	1352.204224
23.658577	7.935000	1354.095337
24.658577	7.935000	1351.737427
-39.341423	8.935000	1354.203125
-38.341423	8.935000	1354.443237
-37.341423	8.935000	1354.842773
-36.341423	8.935000	1353.936279
-35.341423	8.935000	1354.221802
-34.341423	8.935000	1353.992920
-33.341423	8.935000	1354.294189
-32.341423	8.935000	1354.510132
-31.341423	8.935000	1354.486816
-30.341423	8.935000	1354.375366
-29.341423	8.935000	1354.605103
-28.341423	8.935000	1355.411133
-27.341423	8.935000	1355.414185
-26.341423	8.935000	1355.012695
-25.341423	8.935000	1355.524658
-24.341423	8.935000	1353.992432
-23.341423	8.935000	1354.307373
-22.341423	8.935000	1353.557251
-21.341423	8.935000	1354.629395
-20.341423	8.935000	1355.194214
-19.341423	8.935000	1355.061401
-18.341423	8.935000	1354.906250
-17.341423	8.935000	1354.015259
-16.341423	8.935000	1355.814819
-15.341423	8.935000	1355.196289
-14.341423	8.935000	1355.022217
-13.341423	8.935000	1355.497192
-12.341423	8.935000	1354.209961
-11.341423	8.935000	1354.511719
-10.341423	8.935000	1354.408203
-9.341423	8.935000	1354.669678
-8.341423	8.935000	1354.129761
-7.341423	8.935000	1353.463867
-6.341423	8.935000	1354.104736
-5.341423	8.935000	1353.377808
-4.341423	8.935000	1353.421631
-3.341423	8.935000	1353.556274
-2.341423	8.935000	1354.383301
-1.341423	8.935000	1352.758545
-0.341423	8.935000	1353.453247
0.658577	8.935000	1353.460571
1.658577	8.935000	1354.370239
2.658577	8.935000	1354.791748
3.658577	8.935000	1358.998779
4.658577	8.935000	1354.177246
5.658577	8.935000	1356.841919
6.658577	8.935000	1359.304565
7.658577	8.935000	1353.501465
8.658577	8.935000	1355.246582
9.658577	8.935000	1353.364014
10.658577	8.935000	1353.141724
11.658577	8.935000	1356.175049
12.658577	8.935000	1353.605713
13.658577	8.935000	1354.648926
14.658577	8.935000	1352.787964
15.658577	8.935000	1353.902100
16.658577	8.935000	1359.230713
17.658577	8.935000	1353.183594
18.658577	8.935000	1353.859741
19.658577	8.935000	1380.000000
20.658577	8.935000	1356.720825
21.658577	8.935000	1353.085327
22.658577	8.935000	1353.795776
23.658577	8.935000	1354.689697
24.658577	8.935000	1351.465698
-39.341423	9.935000	1353.859009
-38.341423	9.935000	1354.071289
-37.341423	9.935000	1353.960205
-36.341423	9.935000	1353.668457
-35.341423	9.935000	1353.897461
-34.341423	9.935000	1354.157349
-33.341423	9.935000	1354.213501
-32.341423	9.935000	1355.016968
-31.341423	9.935000	1354.142090
-30.341423	9.935000	1354.228027
-29.341423	9.935000	1354.406128
-28.341423	9.935000	1354.037720
-27.341423	9.935000	1355.197510
-26.341423	9.935000	1355.343994
-25.341423	9.935000	1353.134766
-24.341423	9.935000	1355.394043
-23.341423	9.935000	1352.482300
-22.341423	9.935000	1353.346680
-21.341423	9.935000	1352.763916
-20.341423	9.935000	1353.552856
-19.341423	9.935000	1355.065796
-18.341423	9.935000	1354.756348
-17.341423	9.935000	1355.793945
-16.341423	9.935000	1354.976929
-15.341423	9.935000	1355.997559
-14.341423	9.935000	1354.957153
-13.341423	9.935000	1354.061523
-12.341423	9.935000	1354.606934
-11.341423	9.935000	1352.525513
-10.341423	9.935000	1353.943726
-9.341423	9.935000	1354.173462
-8.341423	9.935000	1353.428101
-7.341423	9.935000	1354.995728
-6.341423	9.935000	1353.343140
-5.341423	9.935000	1353.191284
-4.341423	9.935000	1352.702026
-3.341423	9.935000	1354.061157
-2.341423	9.935000	1354.042847
-1.341423	9.935000	1354.071045
-0.341423	9.935000	1353.753906
0.658577	9.935000	1353.877930
1.658577	9.935000	1353.421753
2.658577	9.935000	1356.303223
3.658577	9.935000	1357.374878
4.658577	9.935000	1356.167358
5.658577	9.935000	1355.689331
6.658577	9.935000	1358.927246
7.658577	9.935000	1355.333862
8.658577	9.935000	1357.503052
9.658577	9.935000	1353.838013
10.658577	9.935000	1353.341553
11.658577	9.935000	1353.924927
12.658577	9.935000	1356.647827
13.658577	9.935000	1354.088501
14.658577	9.935000	1354.045776
15.658577	9.935000	1374.171509
16.658577	9.935000	1355.431152
17.658577	9.935000	1350.041260
18.658577	9.935000	1358.966309
19.658577	9.935000	1377.044800
20.658577	9.935000	1354.781860
21.658577	9.935000	1352.628540
22.658577	9.935000	1351.992065
23.658577	9.935000	1357.471436
24.658577	9.935000	1359.354126
-39.341423	10.935000	1354.645874
-38.341423	10.935000	1354.498657
-37.341423	10.935000	1354.519409
-36.341423	10.935000	1354.651855
-35.341423	10.935000	1354.107056
-34.341423	10.935000	1353.512939
-33.341423	10.935000	1353.769287
-32.341423	10.935000	1354.546997
-31.341423	10.935000	1354.633789
-30.341423	10.935000	1354.418457
-29.341423	10.935000	1354.962524
-28.341423	10.935000	1354.284302
-27.341423	10.935000	1356.261719
-26.341423	10.935000	1354.803711
-25.341423	10.935000	1353.286987
-24.341423	10.935000	1357.657349
-23.341423	10.935000	1354.891113
-22.341423	10.935000	1352.949463
-21.341423	10.935000	1352.937256
-20.341423	10.935000	1354.786743
-19.341423	10.935000	1355.727905
-18.341423	10.935000	1354.703369
-17.341423	10.935000	1354.471558
-16.341423	10.935000	1354.350098
-15.341423	10.935000	1355.027222
-14.341423	10.935000	1355.069092
-13.341423	10.935000	1354.898560
-12.341423	10.935000	1355.028442
-11.341423	10.935000	1352.964844
-10.341423	10.935000	1354.624023
-9.341423	10.935000	1354.375854
-8.341423	10.935000	1353.540039
-7.341423	10.935000	1354.653076
-6.341423	10.935000	1353.090088
-5.341423	10.935000	1353.122314
-4.341423	10.935000	1352.195557
-3.341423	10.935000	1352.792847
-2.341423	10.935000	1353.221680
-1.341423	10.935000	1353.498291
-0.341423	10.935000	1354.213745
0.658577	10.935000	1355.211304
1.658577	10.935000	1355.984619
2.658577	10.935000	1355.779297
3.658577	10.935000	1353.428955
4.658577	10.935000	1355.625977
5.658577	10.935000	1356.644043
6.658577	10.935000	1357.626465
7.658577	10.935000	1354.565186
8.658577	10.935000	1354.470093
9.658577	10.935000	1353.612061
10.658577	10.935000	1356.782593
11.658577	10.935000	1355.454346
12.658577	10.935000	1354.445679
13.658577	10.935000	1356.440674
14.658577	10.935000	1365.406250
15.658577	10.935000	1376.417236
16.658577	10.935000	1320.000000
17.658577	10.935000	1380.000000
18.658577	10.935000	1376.265625
19.658577	10.935000	1359.596802
20.658577	10.935000	1352.306641
21.658577	10.935000	1351.595947
22.658577	10.935000	1352.192871
23.658577	10.935000	1354.391479
24.658577	10.935000	1353.190552
-39.341423	11.935000	1354.133179
-38.341423	11.935000	1353.972168
-37.341423	11.935000	1353.881104
-36.341423	11.935000	1353.679565
-35.341423	11.935000	1353.691040
-34.341423	11.935000	1354.015747
-33.341423	11.935000	1354.144653
-32.341423	11.935000	1354.085449
-31.341423	11.935000	1353.811157
-30.341423	11.935000	1354.215942
-29.341423	11.935000	1354.703857
-28.341423	11.935000	1353.987183
-27.341423	11.935000	1354.528931
-26.341423	11.935000	1352.937256
-25.341423	11.935000	1353.255737
-24.341423	11.935000	1356.362549
-23.341423	11.935000	1353.764038
-22.341423	11.935000	1353.979736
-21.341423	11.935000	1353.618408
-20.341423	11.935000	1354.585815
-19.341423	11.935000	1354.195313
-18.341423	11.935000	1353.875000
-17.341423	11.935000	1354.049194
-16.341423	11.935000	1354.054321
-15.341423	11.935000	1354.612915
-14.341423	11.935000	1355.154297
-13.341423	11.935000	1354.059937
-12.341423	11.935000	1354.269775
-11.341423	11.935000	1351.483521
-10.341423	11.935000	1352.491943
-9.341423	11.935000	1354.531372
-8.341423	11.935000	1354.010864
-7.341423	11.935000	1354.189575
-6.341423	11.935000	1353.269775
-5.341423	11.935000	1352.869019
-4.341423	11.935000	1352.643677
-3.341423	11.935000	1353.401489
-2.341423	11.935000	1356.510498
-1.341423	11.935000	1353.115967
-0.341423	11.935000	1352.743896
0.658577	11.935000	1356.485474
1.658577	11.935000	1356.341431
2.658577	11.935000	1355.753662
3.658577	11.935000	1355.613647
4.658577	11.935000	1362.645142
5.658577	11.935000	1357.017578
6.658577	11.935000	1355.196533
7.658577	11.935000	1352.793823
8.658577	11.935000	1352.095703
9.658577	11.935000	1354.622803
10.658577	11.935000	1354.190796
11.658577	11.935000	1355.178345
12.658577	11.935000	1353.793335
13.658577	11.935000	1351.713013
14.658577	11.935000	1356.583130
15.658577	11.935000	1349.450806
16.658577	11.935000	1350.729980
17.658577	11.935000	1380.000000
18.658577	11.935000	1378.324341
19.658577	11.935000	1380.000000
20.658577	11.935000	1353.079956
21.658577	11.935000	1351.595337
22.658577	11.935000	1352.120972
23.658577	11.935000	1352.804810
24.658577	11.935000	1353.015625
-39.341423	12.935000	1353.844849
-38.341423	12.935000	1353.167480
-37.341423	12.935000	1353.482422
-36.341423	12.935000	1353.718140
-35.341423	12.935000	1354.129639
-34.341423	12.935000	1353.909302
-33.341423	12.935000	1354.305176
-32.341423	12.935000	1353.309326
-31.341423	12.935000	1354.597168
-30.341423	12.935000	1354.339233
-29.341423	12.935000	1354.127197
-28.341423	12.935000	1352.306030
-27.341423	12.935000	1353.389038
-26.341423	12.935000	1351.216675
-25.341423	12.935000	1354.693970
-24.341423	12.935000	1354.355469
-23.341423	12.935000	1352.210938
-22.341423	12.935000	1351.904053
-21.341423	12.935000	1353.775879
-20.341423	12.935000	1354.811157
-19.341423	12.935000	1354.611816
-18.341423	12.935000	1354.818481
-17.341423	12.935000	1353.480591
-16.341423	12.935000	1354.027344
-15.341423	12.935000	1355.416138
-14.341423	12.935000	1354.656860
-13.341423	12.935000	1354.385376
-12.341423	12.935000	1354.751343
-11.341423	12.935000	1352.322998
-10.341423	12.935000	1353.017944
-9.341423	12.935000	1355.114746
-8.341423	12.935000	1354.847534
-7.341423	12.935000	1353.761108
-6.341423	12.935000	1354.579834
-5.341423	12.935000	1355.399048
-4.341423	12.935000	1352.739136
-3.341423	12.935000	1352.923340
-2.341423	12.935000	1355.543213
-1.341423	12.935000	1353.262939
-0.341423	12.935000	1355.774780
0.658577	12.935000	1355.355835
1.658577	12.935000	1358.083252
2.658577	12.935000	1356.550659
3.658577	12.935000	1355.037842
4.658577	12.935000	1356.792725
5.658577	12.935000	1354.882080
6.658577	12.935000	1352.221313
7.658577	12.935000	1351.972778
8.658577	12.935000	1352.072754
9.658577	12.935000	1352.903931
10.658577	12.935000	1356.076172
11.658577	12.935000	1355.184570
12.658577	12.935000	1353.279541
13.658577	12.935000	1352.353516
14.658577	12.935000	1338.028809
15.658577	12.935000	1380.000000
16.658577	12.935000	1380.000000
17.658577	12.935000	1380.000000
18.658577	12.935000	1360.009155
19.658577	12.935000	1380.000000
20.658577	12.935000	1357.991699
21.658577	12.935000	1351.187500
22.658577	12.935000	1353.716309
23.658577	12.935000	1352.714478
24.658577	12.935000	1351.078735
-39.341423	13.935000	1353.703735
-38.341423	13.935000	1353.184814
-37.341423	13.935000	1354.104858
-36.341423	13.935000	1354.475098
-35.341423	13.935000	1354.125732
-34.341423	13.935000	1353.737305
-33.341423	13.935000	1353.420288
-32.341423	13.935000	1354.594971
-31.341423	13.935000	1355.016357
-30.341423	13.935000	1353.937500
-29.341423	13.935000	1353.116455
-28.341423	13.935000	1352.719116
-27.341423	13.935000	1352.375000
-26.341423	13.935000	1352.688354
-25.341423	13.935000	1352.642334
-24.341423	13.935000	1352.106079
-23.341423	13.935000	1351.720215
-22.341423	13.935000	1353.400635
-21.341423	13.935000	1353.286133
-20.341423	13.935000	1354.092529
-19.341423	13.935000	1353.550781
-18.341423	13.935000	1353.597900
-17.341423	13.935000	1354.757202
-16.341423	13.935000	1354.125610
-15.341423	13.935000	1355.135620
-14.341423	13.935000	1353.607544
-13.341423	13.935000	1352.834595
-12.341423	13.935000	1354.337524
-11.341423	13.935000	1354.499512
-10.341423	13.935000	1354.496460
-9.341423	13.935000	1354.190674
-8.341423	13.935000	1356.229736
-7.341423	13.935000	1354.851929
-6.341423	13.935000	1353.866333
-5.341423	13.935000	1354.186768
-4.341423	13.935000	1354.109375
-3.341423	13.935000	1353.641235
-2.341423	13.935000	1353.475830
-1.341423	13.935000	1353.753906
-0.341423	13.935000	1353.799683
0.658577	13.935000	1355.618530
1.658577	13.935000	1355.686646
2.658577	13.935000	1357.176270
3.658577	13.935000	1356.651855
4.658577	13.935000	1380.000000
5.658577	13.935000	1363.005371
6.658577	13.935000	1352.490356
7.658577	13.935000	1351.659668
8.658577	13.935000	1352.808472
9.658577	13.935000	1353.920166
10.658577	13.935000	1354.444214
11.658577	13.935000	1354.066895
12.658577	13.935000	1352.656982
13.658577	13.935000	1353.699707
14.658577	13.935000	1364.365723
15.658577	13.935000	1344.055786
16.658577	13.935000	1379.184448
17.658577	13.935000	1380.000000
18.658577	13.935000	1368.950928
19.658577	13.935000	1380.000000
20.658577	13.935000	1320.000000
21.658577	13.935000	1379.925415
22.658577	13.935000	1380.000000
23.658577	13.935000	1347.290649
24.658577	13.935000	1344.352783
-39.341423	14.935000	1354.249023
-38.341423	14.935000	1353.984009
-37.341423	14.935000	1353.624146
-36.341423	14.935000	1354.175903
-35.341423	14.935000	1353.020020
-34.341423	14.935000	1353.855469
-33.341423	14.935000	1353.946655
-32.341423	14.935000	1354.623901
-31.341423	14.935000	1354.784546
-30.341423	14.935000	1354.096191
-29.341423	14.935000	1353.754517
-28.341423	14.935000	1353.164795
-27.341423	14.935000	1352.239258
-26.341423	14.935000	1352.825806
-25.341423	14.935000	1352.623901
-24.341423	14.935000	1352.640869
-23.341423	14.935000	1352.594482
-22.341423	14.935000	1353.685425
-21.341423	14.935000	1354.608398
-20.341423	14.935000	1353.661987
-19.341423	14.935000	1353.727417
-18.341423	14.935000	1352.472168
-17.341423	14.935000	1354.234619
-16.341423	14.935000	1354.095581
-15.341423	14.935000	1354.156982
-14.341423	14.935000	1353.738525
-13.341423	14.935000	1353.643433
-12.341423	14.935000	1353.584595
-11.341423	14.935000	1354.043457
-10.341423	14.935000	1355.999634
-9.341423	14.935000	1359.402100
-8.341423	14.935000	1355.770874
-7.341423	14.935000	1354.118652
-6.341423	14.935000	1352.828857
-5.341423	14.935000	1355.240356
-4.341423	14.935000	1353.612305
-3.341423	14.935000	1353.339233
-2.341423	14.935000	1354.459839
-1.341423	14.935000	1353.036377
-0.341423	14.935000	1352.160645
0.658577	14.935000	1355.937500
1.658577	14.935000	1357.343628
2.658577	14.935000	1357.775024
3.658577	14.935000	1355.000977
4.658577	14.935000	1357.406860
5.658577	14.935000	1354.247192
6.658577	14.935000	1357.279663
7.658577	14.935000	1354.983154
8.658577	14.935000	1351.589111
9.658577	14.935000	1353.622314
10.658577	14.935000	1353.959717
11.658577	14.935000	1354.003540
12.658577	14.935000	1352.197754
13.658577	14.935000	1351.951050
14.658577	14.935000	1369.583618
15.658577	14.935000	1344.730835
16.658577	14.935000	1380.000000
17.658577	14.935000	1380.000000
18.658577	14.935000	1380.000000
19.658577	14.935000	1380.000000
20.658577	14.935000	1376.635376
21.658577	14.935000	1372.308105
22.658577	14.935000	1380.000000
23.658577	14.935000	1346.999390
24.658577	14.935000	1350.366943
-39.341423	15.935000	1353.867676
-38.341423	15.935000	1354.367065
-37.341423	15.935000	1354.588013
-36.341423	15.935000	1354.775635
-35.341423	15.935000	1354.551758
-34.341423	15.935000	1354.679443
-33.341423	15.935000	1355.058350
-32.341423	15.935000	1354.647583
-31.341423	15.935000	1355.661133
-30.341423	15.935000	1356.252808
-29.341423	15.935000	1354.832642
-28.341423	15.935000	1352.332397
-27.341423	15.935000	1352.680298
-26.341423	15.935000	1353.517822
-25.341423	15.935000	1352.767578
-24.341423	15.935000	1352.716553
-23.341423	15.935000	1352.312256
-22.341423	15.935000	1354.018921
-21.341423	15.935000	1354.705078
-20.341423	15.935000	1353.516846
-19.341423	15.935000	1353.665771
-18.341423	15.935000	1353.238403
-17.341423	15.935000	1352.732666
-16.341423	15.935000	1353.079834
-15.341423	15.935000	1353.497192
-14.341423	15.935000	1353.149536
-13.341423	15.935000	1353.621216
-12.341423	15.935000	1353.562988
-11.341423	15.935000	1353.122192
-10.341423	15.935000	1354.981445
-9.341423	15.935000	1353.055664
-8.341423	15.935000	1356.920410
-7.341423	15.935000	1353.440186
-6.341423	15.935000	1352.956299
-5.341423	15.935000	1358.533203
-4.341423	15.935000	1359.986816
-3.341423	15.935000	1357.635986
-2.341423	15.935000	1354.515747
-1.341423	15.935000	1354.808350
-0.341423	15.935000	1352.997925
0.658577	15.935000	1355.534668
1.658577	15.935000	1356.381104
2.658577	15.935000	1356.359619
3.658577	15.935000	1352.994019
4.658577	15.935000	1353.071899
5.658577	15.935000	1341.015747
6.658577	15.935000	1361.958252
7.658577	15.935000	1357.213501
8.658577	15.935000	1358.113647
9.658577	15.935000	1353.574829
10.658577	15.935000	1352.279907
11.658577	15.935000	1354.888184
12.658577	15.935000	1354.210815
13.658577	15.935000	1354.328003
14.658577	15.935000	1380.000000
15.658577	15.935000	1379.377808
16.658577	15.935000	1380.000000
17.658577	15.935000	1347.982788
18.658577	15.935000	1354.465210
19.658577	15.935000	1348.465820
20.658577	15.935000	1350.901978
21.658577	15.935000	1356.926880
22.658577	15.935000	1379.512695
23.658577	15.935000	1380.000000
24.658577	15.935000	1380.000000
