#XList		#YList		#IList		
-39.341423	-21.065000	70.544518
-38.341423	-21.065000	53.284264
-37.341423	-21.065000	38.526417
-36.341423	-21.065000	36.329327
-35.341423	-21.065000	40.491245
-34.341423	-21.065000	173.850677
-33.341423	-21.065000	293.591278
-32.341423	-21.065000	237.215622
-31.341423	-21.065000	338.601074
-30.341423	-21.065000	303.572754
-29.341423	-21.065000	229.240311
-28.341423	-21.065000	153.771011
-27.341423	-21.065000	198.091415
-26.341423	-21.065000	125.907387
-25.341423	-21.065000	59.301132
-24.341423	-21.065000	6.423716
-23.341423	-21.065000	0.523699
-22.341423	-21.065000	6.821618
-21.341423	-21.065000	79.799072
-20.341423	-21.065000	10.603165
-19.341423	-21.065000	2.182424
-18.341423	-21.065000	2.452851
-17.341423	-21.065000	97.770851
-16.341423	-21.065000	422.401031
-15.341423	-21.065000	425.234100
-14.341423	-21.065000	330.385620
-13.341423	-21.065000	234.444717
-12.341423	-21.065000	316.355103
-11.341423	-21.065000	51.711651
-10.341423	-21.065000	9.003591
-9.341423	-21.065000	8.277159
-8.341423	-21.065000	62.508533
-7.341423	-21.065000	119.998802
-6.341423	-21.065000	188.668640
-5.341423	-21.065000	149.759476
-4.341423	-21.065000	35.787033
-3.341423	-21.065000	16.426704
-2.341423	-21.065000	84.269165
-1.341423	-21.065000	88.421112
-0.341423	-21.065000	186.485092
0.658577	-21.065000	126.188454
1.658577	-21.065000	85.837517
2.658577	-21.065000	96.938065
3.658577	-21.065000	103.341850
4.658577	-21.065000	55.626598
5.658577	-21.065000	32.362091
6.658577	-21.065000	0.000000
7.658577	-21.065000	0.692592
8.658577	-21.065000	9.182129
9.658577	-21.065000	18.301634
10.658577	-21.065000	28.838243
11.658577	-21.065000	99.216637
12.658577	-21.065000	118.225166
13.658577	-21.065000	116.641090
14.658577	-21.065000	167.363907
15.658577	-21.065000	130.207321
16.658577	-21.065000	76.246086
17.658577	-21.065000	112.666954
18.658577	-21.065000	196.057144
19.658577	-21.065000	217.685287
20.658577	-21.065000	85.760529
21.658577	-21.065000	15.633241
22.658577	-21.065000	3.026474
23.658577	-21.065000	0.000000
24.658577	-21.065000	1.630468
-39.341423	-20.065000	133.866028
-38.341423	-20.065000	86.458481
-37.341423	-20.065000	41.636959
-36.341423	-20.065000	40.277969
-35.341423	-20.065000	38.266762
-34.341423	-20.065000	92.437958
-33.341423	-20.065000	154.861481
-32.341423	-20.065000	264.208954
-31.341423	-20.065000	349.606934
-30.341423	-20.065000	306.477936
-29.341423	-20.065000	204.868042
-28.341423	-20.065000	152.002899
-27.341423	-20.065000	196.353119
-26.341423	-20.065000	187.102417
-25.341423	-20.065000	208.362259
-24.341423	-20.065000	121.368759
-23.341423	-20.065000	45.746189
-22.341423	-20.065000	24.024422
-21.341423	-20.065000	200.246246
-20.341423	-20.065000	117.347260
-19.341423	-20.065000	56.618782
-18.341423	-20.065000	59.709904
-17.341423	-20.065000	316.435760
-16.341423	-20.065000	424.155762
-15.341423	-20.065000	391.525848
-14.341423	-20.065000	327.428650
-13.341423	-20.065000	336.760010
-12.341423	-20.065000	355.287048
-11.341423	-20.065000	27.069128
-10.341423	-20.065000	21.005888
-9.341423	-20.065000	143.358093
-8.341423	-20.065000	141.283340
-7.341423	-20.065000	106.012421
-6.341423	-20.065000	132.363876
-5.341423	-20.065000	117.761688
-4.341423	-20.065000	49.254700
-3.341423	-20.065000	46.297905
-2.341423	-20.065000	213.577148
-1.341423	-20.065000	147.385696
-0.341423	-20.065000	150.931137
0.658577	-20.065000	92.571754
1.658577	-20.065000	81.765610
2.658577	-20.065000	80.455360
3.658577	-20.065000	51.522789
4.658577	-20.065000	43.947327
5.658577	-20.065000	12.915917
6.658577	-20.065000	0.805260
7.658577	-20.065000	0.000000
8.658577	-20.065000	5.802241
9.658577	-20.065000	49.104126
10.658577	-20.065000	32.536346
11.658577	-20.065000	68.592819
12.658577	-20.065000	141.668335
13.658577	-20.065000	163.776199
14.658577	-20.065000	160.908630
15.658577	-20.065000	168.566833
16.658577	-20.065000	156.596710
17.658577	-20.065000	88.673813
18.658577	-20.065000	216.239120
19.658577	-20.065000	235.681900
20.658577	-20.065000	262.523346
21.658577	-20.065000	106.734222
22.658577	-20.065000	1.190930
23.658577	-20.065000	0.000000
24.658577	-20.065000	53.241562
-39.341423	-19.065000	129.731201
-38.341423	-19.065000	68.118614
-37.341423	-19.065000	53.129669
-36.341423	-19.065000	38.608963
-35.341423	-19.065000	77.641426
-34.341423	-19.065000	9.808066
-33.341423	-19.065000	81.767258
-32.341423	-19.065000	266.379425
-31.341423	-19.065000	417.389130
-30.341423	-19.065000	383.405914
-29.341423	-19.065000	195.178452
-28.341423	-19.065000	176.929993
-27.341423	-19.065000	181.355453
-26.341423	-19.065000	166.334198
-25.341423	-19.065000	190.895370
-24.341423	-19.065000	196.100815
-23.341423	-19.065000	201.042725
-22.341423	-19.065000	186.054657
-21.341423	-19.065000	176.273376
-20.341423	-19.065000	213.882446
-19.341423	-19.065000	235.114151
-18.341423	-19.065000	104.811676
-17.341423	-19.065000	379.064636
-16.341423	-19.065000	439.572266
-15.341423	-19.065000	440.822327
-14.341423	-19.065000	322.749359
-13.341423	-19.065000	332.389893
-12.341423	-19.065000	405.737091
-11.341423	-19.065000	122.426559
-10.341423	-19.065000	220.281174
-9.341423	-19.065000	179.005615
-8.341423	-19.065000	142.739746
-7.341423	-19.065000	175.389084
-6.341423	-19.065000	174.537613
-5.341423	-19.065000	110.300850
-4.341423	-19.065000	164.817276
-3.341423	-19.065000	229.314423
-2.341423	-19.065000	116.152634
-1.341423	-19.065000	112.437607
-0.341423	-19.065000	170.977936
0.658577	-19.065000	54.716473
1.658577	-19.065000	42.124687
2.658577	-19.065000	76.533119
3.658577	-19.065000	101.378059
4.658577	-19.065000	75.651031
5.658577	-19.065000	5.573791
6.658577	-19.065000	2.175741
7.658577	-19.065000	34.194656
8.658577	-19.065000	123.570396
9.658577	-19.065000	170.927612
10.658577	-19.065000	72.463242
11.658577	-19.065000	189.432678
12.658577	-19.065000	132.340790
13.658577	-19.065000	191.742233
14.658577	-19.065000	133.512878
15.658577	-19.065000	57.875664
16.658577	-19.065000	133.358231
17.658577	-19.065000	50.621845
18.658577	-19.065000	176.538437
19.658577	-19.065000	226.647522
20.658577	-19.065000	235.723053
21.658577	-19.065000	104.753250
22.658577	-19.065000	9.523126
23.658577	-19.065000	1.402020
24.658577	-19.065000	7.165507
-39.341423	-18.065000	204.752014
-38.341423	-18.065000	96.115723
-37.341423	-18.065000	173.314880
-36.341423	-18.065000	101.542542
-35.341423	-18.065000	107.508003
-34.341423	-18.065000	3.398705
-33.341423	-18.065000	66.617950
-32.341423	-18.065000	270.688568
-31.341423	-18.065000	368.188385
-30.341423	-18.065000	321.650757
-29.341423	-18.065000	190.752670
-28.341423	-18.065000	212.634598
-27.341423	-18.065000	199.003769
-26.341423	-18.065000	218.099594
-25.341423	-18.065000	184.902664
-24.341423	-18.065000	203.052811
-23.341423	-18.065000	196.924728
-22.341423	-18.065000	204.775513
-21.341423	-18.065000	172.937653
-20.341423	-18.065000	204.499817
-19.341423	-18.065000	184.914978
-18.341423	-18.065000	121.852692
-17.341423	-18.065000	252.132523
-16.341423	-18.065000	293.742584
-15.341423	-18.065000	428.166748
-14.341423	-18.065000	410.300903
-13.341423	-18.065000	440.549347
-12.341423	-18.065000	337.268463
-11.341423	-18.065000	254.421310
-10.341423	-18.065000	224.971527
-9.341423	-18.065000	172.071152
-8.341423	-18.065000	153.695374
-7.341423	-18.065000	188.759476
-6.341423	-18.065000	193.246185
-5.341423	-18.065000	76.321854
-4.341423	-18.065000	135.288620
-3.341423	-18.065000	166.471848
-2.341423	-18.065000	131.892151
-1.341423	-18.065000	103.406097
-0.341423	-18.065000	96.583122
0.658577	-18.065000	52.306267
1.658577	-18.065000	53.129059
2.658577	-18.065000	116.229843
3.658577	-18.065000	67.159447
4.658577	-18.065000	168.831772
5.658577	-18.065000	47.597301
6.658577	-18.065000	107.353630
7.658577	-18.065000	321.128571
8.658577	-18.065000	400.929352
9.658577	-18.065000	236.898727
10.658577	-18.065000	244.773773
11.658577	-18.065000	340.296814
12.658577	-18.065000	286.894440
13.658577	-18.065000	220.019165
14.658577	-18.065000	168.775574
15.658577	-18.065000	141.221542
16.658577	-18.065000	157.745728
17.658577	-18.065000	155.339539
18.658577	-18.065000	168.690247
19.658577	-18.065000	88.876823
20.658577	-18.065000	14.859615
21.658577	-18.065000	74.530190
22.658577	-18.065000	221.896194
23.658577	-18.065000	195.657883
24.658577	-18.065000	118.381416
-39.341423	-17.065000	218.373703
-38.341423	-17.065000	264.171356
-37.341423	-17.065000	375.061249
-36.341423	-17.065000	26.303570
-35.341423	-17.065000	5.625725
-34.341423	-17.065000	5.302371
-33.341423	-17.065000	14.419005
-32.341423	-17.065000	99.358765
-31.341423	-17.065000	161.218857
-30.341423	-17.065000	187.920044
-29.341423	-17.065000	197.623566
-28.341423	-17.065000	183.463318
-27.341423	-17.065000	172.901199
-26.341423	-17.065000	172.505966
-25.341423	-17.065000	198.798935
-24.341423	-17.065000	205.460510
-23.341423	-17.065000	214.883209
-22.341423	-17.065000	172.611176
-21.341423	-17.065000	211.677444
-20.341423	-17.065000	49.147888
-19.341423	-17.065000	79.011147
-18.341423	-17.065000	12.518542
-17.341423	-17.065000	153.088562
-16.341423	-17.065000	322.800934
-15.341423	-17.065000	438.684601
-14.341423	-17.065000	482.947510
-13.341423	-17.065000	383.523926
-12.341423	-17.065000	376.483521
-11.341423	-17.065000	227.353485
-10.341423	-17.065000	238.839890
-9.341423	-17.065000	158.910416
-8.341423	-17.065000	173.231705
-7.341423	-17.065000	36.994579
-6.341423	-17.065000	265.984253
-5.341423	-17.065000	241.441757
-4.341423	-17.065000	103.457184
-3.341423	-17.065000	114.040955
-2.341423	-17.065000	98.270996
-1.341423	-17.065000	184.158188
-0.341423	-17.065000	68.274231
0.658577	-17.065000	92.510002
1.658577	-17.065000	72.228081
2.658577	-17.065000	71.839264
3.658577	-17.065000	48.335979
4.658577	-17.065000	150.869949
5.658577	-17.065000	24.776424
6.658577	-17.065000	145.582993
7.658577	-17.065000	270.618286
8.658577	-17.065000	229.573990
9.658577	-17.065000	229.164886
10.658577	-17.065000	210.274551
11.658577	-17.065000	229.166245
12.658577	-17.065000	314.138489
13.658577	-17.065000	184.054794
14.658577	-17.065000	124.440659
15.658577	-17.065000	280.723419
16.658577	-17.065000	91.413101
17.658577	-17.065000	41.204372
18.658577	-17.065000	36.638702
19.658577	-17.065000	64.035423
20.658577	-17.065000	18.275267
21.658577	-17.065000	98.834991
22.658577	-17.065000	113.670815
23.658577	-17.065000	150.600006
24.658577	-17.065000	197.872375
-39.341423	-16.065000	128.116516
-38.341423	-16.065000	182.382996
-37.341423	-16.065000	82.945534
-36.341423	-16.065000	41.860916
-35.341423	-16.065000	87.460876
-34.341423	-16.065000	101.246994
-33.341423	-16.065000	201.736755
-32.341423	-16.065000	370.708710
-31.341423	-16.065000	262.621796
-30.341423	-16.065000	222.173996
-29.341423	-16.065000	198.076416
-28.341423	-16.065000	188.395782
-27.341423	-16.065000	199.380508
-26.341423	-16.065000	203.249344
-25.341423	-16.065000	196.855270
-24.341423	-16.065000	210.934937
-23.341423	-16.065000	198.730270
-22.341423	-16.065000	183.563660
-21.341423	-16.065000	142.212234
-20.341423	-16.065000	20.816286
-19.341423	-16.065000	5.699735
-18.341423	-16.065000	13.539553
-17.341423	-16.065000	75.789932
-16.341423	-16.065000	284.057709
-15.341423	-16.065000	395.723114
-14.341423	-16.065000	528.325867
-13.341423	-16.065000	464.705933
-12.341423	-16.065000	306.403351
-11.341423	-16.065000	206.127014
-10.341423	-16.065000	137.633270
-9.341423	-16.065000	188.890335
-8.341423	-16.065000	67.012314
-7.341423	-16.065000	76.481201
-6.341423	-16.065000	196.908234
-5.341423	-16.065000	271.391541
-4.341423	-16.065000	164.164383
-3.341423	-16.065000	57.162861
-2.341423	-16.065000	41.453625
-1.341423	-16.065000	114.744888
-0.341423	-16.065000	230.552582
0.658577	-16.065000	173.623367
1.658577	-16.065000	72.267242
2.658577	-16.065000	20.290850
3.658577	-16.065000	32.165298
4.658577	-16.065000	38.286568
5.658577	-16.065000	140.341751
6.658577	-16.065000	204.991241
7.658577	-16.065000	188.136566
8.658577	-16.065000	195.533081
9.658577	-16.065000	207.544434
10.658577	-16.065000	237.542679
11.658577	-16.065000	359.535980
12.658577	-16.065000	288.035522
13.658577	-16.065000	35.606819
14.658577	-16.065000	60.352249
15.658577	-16.065000	195.815674
16.658577	-16.065000	128.184433
17.658577	-16.065000	78.924789
18.658577	-16.065000	59.345894
19.658577	-16.065000	118.952736
20.658577	-16.065000	61.123142
21.658577	-16.065000	126.689980
22.658577	-16.065000	117.054268
23.658577	-16.065000	173.097382
24.658577	-16.065000	125.432892
-39.341423	-15.065000	35.743855
-38.341423	-15.065000	12.524648
-37.341423	-15.065000	57.224056
-36.341423	-15.065000	310.221954
-35.341423	-15.065000	464.481659
-34.341423	-15.065000	486.278625
-33.341423	-15.065000	458.368011
-32.341423	-15.065000	474.556519
-31.341423	-15.065000	279.110443
-30.341423	-15.065000	224.246109
-29.341423	-15.065000	222.334503
-28.341423	-15.065000	198.219681
-27.341423	-15.065000	228.774063
-26.341423	-15.065000	191.790634
-25.341423	-15.065000	209.156708
-24.341423	-15.065000	220.001846
-23.341423	-15.065000	188.885284
-22.341423	-15.065000	138.079803
-21.341423	-15.065000	129.515305
-20.341423	-15.065000	18.668839
-19.341423	-15.065000	8.571278
-18.341423	-15.065000	192.155472
-17.341423	-15.065000	230.621613
-16.341423	-15.065000	312.348755
-15.341423	-15.065000	347.906677
-14.341423	-15.065000	383.559845
-13.341423	-15.065000	362.322205
-12.341423	-15.065000	173.542892
-11.341423	-15.065000	84.063736
-10.341423	-15.065000	144.604126
-9.341423	-15.065000	140.379532
-8.341423	-15.065000	99.137650
-7.341423	-15.065000	107.448029
-6.341423	-15.065000	125.319656
-5.341423	-15.065000	163.725739
-4.341423	-15.065000	86.145729
-3.341423	-15.065000	58.253242
-2.341423	-15.065000	41.538288
-1.341423	-15.065000	52.153458
-0.341423	-15.065000	250.704559
0.658577	-15.065000	207.925156
1.658577	-15.065000	95.340645
2.658577	-15.065000	73.726341
3.658577	-15.065000	44.304844
4.658577	-15.065000	142.840714
5.658577	-15.065000	259.129639
6.658577	-15.065000	303.453339
7.658577	-15.065000	193.405884
8.658577	-15.065000	209.896606
9.658577	-15.065000	236.728088
10.658577	-15.065000	228.897552
11.658577	-15.065000	238.526550
12.658577	-15.065000	30.185978
13.658577	-15.065000	21.705822
14.658577	-15.065000	93.613518
15.658577	-15.065000	17.463202
16.658577	-15.065000	74.090378
17.658577	-15.065000	118.513748
18.658577	-15.065000	130.609512
19.658577	-15.065000	36.445599
20.658577	-15.065000	43.605156
21.658577	-15.065000	135.523041
22.658577	-15.065000	227.003448
23.658577	-15.065000	133.615372
24.658577	-15.065000	75.988144
-39.341423	-14.065000	22.475500
-38.341423	-14.065000	87.920074
-37.341423	-14.065000	400.784271
-36.341423	-14.065000	464.659851
-35.341423	-14.065000	425.684021
-34.341423	-14.065000	394.937164
-33.341423	-14.065000	386.868713
-32.341423	-14.065000	443.230072
-31.341423	-14.065000	352.327087
-30.341423	-14.065000	257.750702
-29.341423	-14.065000	201.477127
-28.341423	-14.065000	205.048248
-27.341423	-14.065000	251.067291
-26.341423	-14.065000	247.875748
-25.341423	-14.065000	194.289886
-24.341423	-14.065000	176.039078
-23.341423	-14.065000	198.225952
-22.341423	-14.065000	163.259140
-21.341423	-14.065000	50.377670
-20.341423	-14.065000	95.887177
-19.341423	-14.065000	10.354989
-18.341423	-14.065000	104.119606
-17.341423	-14.065000	82.548294
-16.341423	-14.065000	171.326431
-15.341423	-14.065000	349.295135
-14.341423	-14.065000	318.712585
-13.341423	-14.065000	117.031113
-12.341423	-14.065000	126.882629
-11.341423	-14.065000	98.299774
-10.341423	-14.065000	112.356133
-9.341423	-14.065000	80.095108
-8.341423	-14.065000	55.446682
-7.341423	-14.065000	65.648682
-6.341423	-14.065000	99.681458
-5.341423	-14.065000	112.636734
-4.341423	-14.065000	47.470852
-3.341423	-14.065000	49.383099
-2.341423	-14.065000	38.032921
-1.341423	-14.065000	56.135250
-0.341423	-14.065000	134.633179
0.658577	-14.065000	166.324631
1.658577	-14.065000	128.222794
2.658577	-14.065000	46.083420
3.658577	-14.065000	48.207150
4.658577	-14.065000	63.925766
5.658577	-14.065000	153.548080
6.658577	-14.065000	344.840332
7.658577	-14.065000	295.451904
8.658577	-14.065000	174.449783
9.658577	-14.065000	315.967773
10.658577	-14.065000	167.409302
11.658577	-14.065000	13.315472
12.658577	-14.065000	9.954037
13.658577	-14.065000	111.490913
14.658577	-14.065000	44.046654
15.658577	-14.065000	4.350111
16.658577	-14.065000	6.355885
17.658577	-14.065000	14.763535
18.658577	-14.065000	36.672993
19.658577	-14.065000	56.513584
20.658577	-14.065000	106.971893
21.658577	-14.065000	150.604431
22.658577	-14.065000	173.655960
23.658577	-14.065000	96.112930
24.658577	-14.065000	47.896603
-39.341423	-13.065000	266.551880
-38.341423	-13.065000	393.365997
-37.341423	-13.065000	479.229828
-36.341423	-13.065000	421.333252
-35.341423	-13.065000	404.803284
-34.341423	-13.065000	400.543518
-33.341423	-13.065000	418.632965
-32.341423	-13.065000	421.364502
-31.341423	-13.065000	389.126923
-30.341423	-13.065000	325.779938
-29.341423	-13.065000	283.556091
-28.341423	-13.065000	239.706024
-27.341423	-13.065000	238.341003
-26.341423	-13.065000	214.557571
-25.341423	-13.065000	189.698669
-24.341423	-13.065000	176.468582
-23.341423	-13.065000	191.775543
-22.341423	-13.065000	219.456940
-21.341423	-13.065000	124.066292
-20.341423	-13.065000	126.648758
-19.341423	-13.065000	69.440536
-18.341423	-13.065000	24.338526
-17.341423	-13.065000	13.967966
-16.341423	-13.065000	26.813238
-15.341423	-13.065000	83.851227
-14.341423	-13.065000	20.908903
-13.341423	-13.065000	9.658459
-12.341423	-13.065000	45.675499
-11.341423	-13.065000	113.462128
-10.341423	-13.065000	103.344551
-9.341423	-13.065000	69.522316
-8.341423	-13.065000	63.017857
-7.341423	-13.065000	78.155502
-6.341423	-13.065000	116.015717
-5.341423	-13.065000	93.986084
-4.341423	-13.065000	65.411530
-3.341423	-13.065000	80.611076
-2.341423	-13.065000	100.467926
-1.341423	-13.065000	113.508965
-0.341423	-13.065000	221.078979
0.658577	-13.065000	154.478973
1.658577	-13.065000	115.243439
2.658577	-13.065000	61.507175
3.658577	-13.065000	44.753223
4.658577	-13.065000	76.341026
5.658577	-13.065000	69.291504
6.658577	-13.065000	127.006294
7.658577	-13.065000	349.627869
8.658577	-13.065000	301.358154
9.658577	-13.065000	194.065796
10.658577	-13.065000	12.794765
11.658577	-13.065000	4.970284
12.658577	-13.065000	17.838209
13.658577	-13.065000	57.899940
14.658577	-13.065000	108.515854
15.658577	-13.065000	20.626028
16.658577	-13.065000	59.935268
17.658577	-13.065000	144.771957
18.658577	-13.065000	123.229652
19.658577	-13.065000	161.572342
20.658577	-13.065000	229.575989
21.658577	-13.065000	141.151382
22.658577	-13.065000	196.598114
23.658577	-13.065000	165.174179
24.658577	-13.065000	80.858536
-39.341423	-12.065000	369.145111
-38.341423	-12.065000	442.118408
-37.341423	-12.065000	450.366302
-36.341423	-12.065000	442.498077
-35.341423	-12.065000	382.811859
-34.341423	-12.065000	399.532318
-33.341423	-12.065000	389.520264
-32.341423	-12.065000	383.179260
-31.341423	-12.065000	326.727112
-30.341423	-12.065000	354.862793
-29.341423	-12.065000	377.560059
-28.341423	-12.065000	290.268188
-27.341423	-12.065000	177.618271
-26.341423	-12.065000	245.143570
-25.341423	-12.065000	188.259338
-24.341423	-12.065000	180.015533
-23.341423	-12.065000	210.202133
-22.341423	-12.065000	195.815338
-21.341423	-12.065000	52.300785
-20.341423	-12.065000	41.021755
-19.341423	-12.065000	65.430344
-18.341423	-12.065000	26.713268
-17.341423	-12.065000	15.428473
-16.341423	-12.065000	18.835640
-15.341423	-12.065000	60.235901
-14.341423	-12.065000	13.435118
-13.341423	-12.065000	28.226490
-12.341423	-12.065000	128.329788
-11.341423	-12.065000	95.512154
-10.341423	-12.065000	103.718315
-9.341423	-12.065000	67.584549
-8.341423	-12.065000	65.851753
-7.341423	-12.065000	126.494217
-6.341423	-12.065000	172.641266
-5.341423	-12.065000	169.873032
-4.341423	-12.065000	55.723866
-3.341423	-12.065000	128.497391
-2.341423	-12.065000	155.042404
-1.341423	-12.065000	132.456635
-0.341423	-12.065000	158.841629
0.658577	-12.065000	88.619186
1.658577	-12.065000	63.571152
2.658577	-12.065000	47.360935
3.658577	-12.065000	39.610111
4.658577	-12.065000	57.017368
5.658577	-12.065000	70.407578
6.658577	-12.065000	103.310127
7.658577	-12.065000	165.939087
8.658577	-12.065000	133.442337
9.658577	-12.065000	9.335245
10.658577	-12.065000	4.659985
11.658577	-12.065000	4.361305
12.658577	-12.065000	92.388077
13.658577	-12.065000	32.643791
14.658577	-12.065000	106.150856
15.658577	-12.065000	176.376923
16.658577	-12.065000	101.440819
17.658577	-12.065000	183.301422
18.658577	-12.065000	160.046158
19.658577	-12.065000	114.962456
20.658577	-12.065000	69.806572
21.658577	-12.065000	108.280548
22.658577	-12.065000	111.217735
23.658577	-12.065000	165.011642
24.658577	-12.065000	116.607742
-39.341423	-11.065000	446.789032
-38.341423	-11.065000	455.272736
-37.341423	-11.065000	454.932556
-36.341423	-11.065000	366.339447
-35.341423	-11.065000	374.092682
-34.341423	-11.065000	360.911316
-33.341423	-11.065000	376.934326
-32.341423	-11.065000	329.263184
-31.341423	-11.065000	347.867889
-30.341423	-11.065000	426.861664
-29.341423	-11.065000	412.040100
-28.341423	-11.065000	377.741760
-27.341423	-11.065000	315.552368
-26.341423	-11.065000	434.379211
-25.341423	-11.065000	222.535782
-24.341423	-11.065000	197.139221
-23.341423	-11.065000	178.314270
-22.341423	-11.065000	154.175781
-21.341423	-11.065000	68.746513
-20.341423	-11.065000	139.922668
-19.341423	-11.065000	123.228073
-18.341423	-11.065000	62.861229
-17.341423	-11.065000	41.164745
-16.341423	-11.065000	48.949612
-15.341423	-11.065000	134.664597
-14.341423	-11.065000	69.070732
-13.341423	-11.065000	32.403923
-12.341423	-11.065000	165.219193
-11.341423	-11.065000	142.545166
-10.341423	-11.065000	115.314781
-9.341423	-11.065000	42.687447
-8.341423	-11.065000	28.923801
-7.341423	-11.065000	107.175545
-6.341423	-11.065000	149.545090
-5.341423	-11.065000	61.591423
-4.341423	-11.065000	55.097939
-3.341423	-11.065000	57.870613
-2.341423	-11.065000	67.532288
-1.341423	-11.065000	112.259941
-0.341423	-11.065000	84.816406
0.658577	-11.065000	85.797867
1.658577	-11.065000	141.330078
2.658577	-11.065000	132.558167
3.658577	-11.065000	26.221319
4.658577	-11.065000	23.286291
5.658577	-11.065000	62.941288
6.658577	-11.065000	56.673622
7.658577	-11.065000	184.746979
8.658577	-11.065000	160.091949
9.658577	-11.065000	5.484026
10.658577	-11.065000	1.870225
11.658577	-11.065000	8.313947
12.658577	-11.065000	12.791966
13.658577	-11.065000	149.379700
14.658577	-11.065000	147.637482
15.658577	-11.065000	166.795670
16.658577	-11.065000	97.377350
17.658577	-11.065000	89.959839
18.658577	-11.065000	61.733585
19.658577	-11.065000	45.549042
20.658577	-11.065000	34.788666
21.658577	-11.065000	26.994041
22.658577	-11.065000	47.455395
23.658577	-11.065000	122.709137
24.658577	-11.065000	135.803635
-39.341423	-10.065000	410.781311
-38.341423	-10.065000	447.868134
-37.341423	-10.065000	398.647125
-36.341423	-10.065000	371.488312
-35.341423	-10.065000	372.574707
-34.341423	-10.065000	362.017273
-33.341423	-10.065000	397.864136
-32.341423	-10.065000	419.977814
-31.341423	-10.065000	412.488403
-30.341423	-10.065000	366.397888
-29.341423	-10.065000	382.265686
-28.341423	-10.065000	381.232422
-27.341423	-10.065000	393.056000
-26.341423	-10.065000	417.806000
-25.341423	-10.065000	244.397690
-24.341423	-10.065000	186.822372
-23.341423	-10.065000	143.021500
-22.341423	-10.065000	12.695616
-21.341423	-10.065000	144.730637
-20.341423	-10.065000	126.525063
-19.341423	-10.065000	51.766438
-18.341423	-10.065000	74.259666
-17.341423	-10.065000	102.184937
-16.341423	-10.065000	127.435959
-15.341423	-10.065000	194.429794
-14.341423	-10.065000	216.160339
-13.341423	-10.065000	77.892754
-12.341423	-10.065000	254.491669
-11.341423	-10.065000	199.938095
-10.341423	-10.065000	127.517197
-9.341423	-10.065000	9.822125
-8.341423	-10.065000	26.482805
-7.341423	-10.065000	24.886124
-6.341423	-10.065000	16.492353
-5.341423	-10.065000	18.143171
-4.341423	-10.065000	29.334652
-3.341423	-10.065000	26.854929
-2.341423	-10.065000	48.563030
-1.341423	-10.065000	82.471054
-0.341423	-10.065000	143.919891
0.658577	-10.065000	180.910980
1.658577	-10.065000	159.371353
2.658577	-10.065000	59.195744
3.658577	-10.065000	15.217474
4.658577	-10.065000	29.328993
5.658577	-10.065000	89.981956
6.658577	-10.065000	169.371628
7.658577	-10.065000	182.674759
8.658577	-10.065000	11.178807
9.658577	-10.065000	4.579411
10.658577	-10.065000	15.438185
11.658577	-10.065000	2.648247
12.658577	-10.065000	22.207359
13.658577	-10.065000	97.971756
14.658577	-10.065000	65.998283
15.658577	-10.065000	159.498550
16.658577	-10.065000	139.248581
17.658577	-10.065000	50.052231
18.658577	-10.065000	38.266323
19.658577	-10.065000	51.381508
20.658577	-10.065000	65.517960
21.658577	-10.065000	43.505413
22.658577	-10.065000	29.371876
23.658577	-10.065000	70.785461
24.658577	-10.065000	54.079308
-39.341423	-9.065000	395.973083
-38.341423	-9.065000	364.320557
-37.341423	-9.065000	360.274750
-36.341423	-9.065000	411.069336
-35.341423	-9.065000	448.406586
-34.341423	-9.065000	438.495819
-33.341423	-9.065000	416.591705
-32.341423	-9.065000	466.210999
-31.341423	-9.065000	429.541870
-30.341423	-9.065000	404.279663
-29.341423	-9.065000	397.934998
-28.341423	-9.065000	387.801392
-27.341423	-9.065000	429.517487
-26.341423	-9.065000	290.722443
-25.341423	-9.065000	143.774170
-24.341423	-9.065000	17.428616
-23.341423	-9.065000	9.068452
-22.341423	-9.065000	2.975235
-21.341423	-9.065000	8.245972
-20.341423	-9.065000	14.514091
-19.341423	-9.065000	99.333015
-18.341423	-9.065000	53.072372
-17.341423	-9.065000	95.170563
-16.341423	-9.065000	201.108261
-15.341423	-9.065000	317.076752
-14.341423	-9.065000	273.758514
-13.341423	-9.065000	161.021637
-12.341423	-9.065000	342.023468
-11.341423	-9.065000	472.444855
-10.341423	-9.065000	405.033295
-9.341423	-9.065000	135.903580
-8.341423	-9.065000	214.823456
-7.341423	-9.065000	38.010418
-6.341423	-9.065000	15.501247
-5.341423	-9.065000	9.014801
-4.341423	-9.065000	20.446985
-3.341423	-9.065000	31.070921
-2.341423	-9.065000	19.316292
-1.341423	-9.065000	72.478455
-0.341423	-9.065000	151.697235
0.658577	-9.065000	133.024628
1.658577	-9.065000	39.555088
2.658577	-9.065000	16.006672
3.658577	-9.065000	26.004137
4.658577	-9.065000	76.443207
5.658577	-9.065000	185.149445
6.658577	-9.065000	206.305420
7.658577	-9.065000	169.109894
8.658577	-9.065000	6.089754
9.658577	-9.065000	0.000000
10.658577	-9.065000	14.477577
11.658577	-9.065000	5.671832
12.658577	-9.065000	87.941307
13.658577	-9.065000	70.756180
14.658577	-9.065000	63.175110
15.658577	-9.065000	42.550213
16.658577	-9.065000	96.497063
17.658577	-9.065000	133.095749
18.658577	-9.065000	42.075817
19.658577	-9.065000	45.009521
20.658577	-9.065000	33.187428
21.658577	-9.065000	38.535595
22.658577	-9.065000	59.072685
23.658577	-9.065000	58.331467
24.658577	-9.065000	33.726696
-39.341423	-8.065000	382.536011
-38.341423	-8.065000	348.777802
-37.341423	-8.065000	377.756287
-36.341423	-8.065000	438.082581
-35.341423	-8.065000	442.148438
-34.341423	-8.065000	464.130493
-33.341423	-8.065000	451.882660
-32.341423	-8.065000	496.243591
-31.341423	-8.065000	379.977692
-30.341423	-8.065000	374.756592
-29.341423	-8.065000	356.865448
-28.341423	-8.065000	401.267426
-27.341423	-8.065000	392.606171
-26.341423	-8.065000	264.750092
-25.341423	-8.065000	325.035645
-24.341423	-8.065000	96.813171
-23.341423	-8.065000	6.144329
-22.341423	-8.065000	7.274275
-21.341423	-8.065000	34.403969
-20.341423	-8.065000	45.810356
-19.341423	-8.065000	98.069687
-18.341423	-8.065000	131.179092
-17.341423	-8.065000	300.493378
-16.341423	-8.065000	281.629517
-15.341423	-8.065000	157.236359
-14.341423	-8.065000	170.484207
-13.341423	-8.065000	213.979919
-12.341423	-8.065000	212.706406
-11.341423	-8.065000	288.729584
-10.341423	-8.065000	237.800842
-9.341423	-8.065000	363.787201
-8.341423	-8.065000	196.067856
-7.341423	-8.065000	14.029356
-6.341423	-8.065000	13.022119
-5.341423	-8.065000	21.092476
-4.341423	-8.065000	13.721229
-3.341423	-8.065000	37.758076
-2.341423	-8.065000	19.086155
-1.341423	-8.065000	26.661987
-0.341423	-8.065000	43.902752
0.658577	-8.065000	88.882111
1.658577	-8.065000	18.917767
2.658577	-8.065000	31.618170
3.658577	-8.065000	78.252419
4.658577	-8.065000	178.705750
5.658577	-8.065000	232.149582
6.658577	-8.065000	204.128799
7.658577	-8.065000	154.577606
8.658577	-8.065000	4.734521
9.658577	-8.065000	50.738197
10.658577	-8.065000	0.000000
11.658577	-8.065000	3.168107
12.658577	-8.065000	24.674480
13.658577	-8.065000	111.912819
14.658577	-8.065000	97.247589
15.658577	-8.065000	104.020309
16.658577	-8.065000	160.653198
17.658577	-8.065000	147.598587
18.658577	-8.065000	53.810745
19.658577	-8.065000	54.303642
20.658577	-8.065000	72.727921
21.658577	-8.065000	28.219315
22.658577	-8.065000	24.055401
23.658577	-8.065000	103.980217
24.658577	-8.065000	11.298725
-39.341423	-7.065000	370.941101
-38.341423	-7.065000	316.931366
-37.341423	-7.065000	416.083252
-36.341423	-7.065000	440.472992
-35.341423	-7.065000	466.219421
-34.341423	-7.065000	502.342041
-33.341423	-7.065000	503.880951
-32.341423	-7.065000	457.872681
-31.341423	-7.065000	407.573425
-30.341423	-7.065000	378.255585
-29.341423	-7.065000	385.874756
-28.341423	-7.065000	363.561462
-27.341423	-7.065000	114.760826
-26.341423	-7.065000	273.639587
-25.341423	-7.065000	303.726410
-24.341423	-7.065000	135.703873
-23.341423	-7.065000	68.348038
-22.341423	-7.065000	27.474693
-21.341423	-7.065000	41.124992
-20.341423	-7.065000	77.073349
-19.341423	-7.065000	174.367630
-18.341423	-7.065000	83.231056
-17.341423	-7.065000	336.344604
-16.341423	-7.065000	321.233276
-15.341423	-7.065000	195.547470
-14.341423	-7.065000	222.258972
-13.341423	-7.065000	187.392426
-12.341423	-7.065000	203.948486
-11.341423	-7.065000	245.435608
-10.341423	-7.065000	259.456879
-9.341423	-7.065000	345.493225
-8.341423	-7.065000	344.807281
-7.341423	-7.065000	13.683860
-6.341423	-7.065000	8.441687
-5.341423	-7.065000	4.704908
-4.341423	-7.065000	4.903596
-3.341423	-7.065000	96.572830
-2.341423	-7.065000	113.891708
-1.341423	-7.065000	5.525575
-0.341423	-7.065000	4.703721
0.658577	-7.065000	4.517164
1.658577	-7.065000	3.665012
2.658577	-7.065000	99.442284
3.658577	-7.065000	120.687637
4.658577	-7.065000	169.873459
5.658577	-7.065000	236.895508
6.658577	-7.065000	78.897194
7.658577	-7.065000	24.678883
8.658577	-7.065000	3.156984
9.658577	-7.065000	2.408311
10.658577	-7.065000	62.780651
11.658577	-7.065000	13.485286
12.658577	-7.065000	25.111609
13.658577	-7.065000	169.309326
14.658577	-7.065000	282.503845
15.658577	-7.065000	293.695709
16.658577	-7.065000	120.650093
17.658577	-7.065000	81.174500
18.658577	-7.065000	76.882072
19.658577	-7.065000	77.591675
20.658577	-7.065000	143.975723
21.658577	-7.065000	107.184723
22.658577	-7.065000	100.964249
23.658577	-7.065000	153.441833
24.658577	-7.065000	66.549850
-39.341423	-6.065000	309.555969
-38.341423	-6.065000	356.019714
-37.341423	-6.065000	407.727448
-36.341423	-6.065000	410.097839
-35.341423	-6.065000	413.619812
-34.341423	-6.065000	454.423218
-33.341423	-6.065000	473.542633
-32.341423	-6.065000	481.209869
-31.341423	-6.065000	368.081970
-30.341423	-6.065000	410.212769
-29.341423	-6.065000	415.254303
-28.341423	-6.065000	355.291687
-27.341423	-6.065000	133.139847
-26.341423	-6.065000	277.880035
-25.341423	-6.065000	335.187195
-24.341423	-6.065000	341.455933
-23.341423	-6.065000	158.116425
-22.341423	-6.065000	247.497803
-21.341423	-6.065000	225.182373
-20.341423	-6.065000	68.841125
-19.341423	-6.065000	5.319553
-18.341423	-6.065000	6.157434
-17.341423	-6.065000	63.746578
-16.341423	-6.065000	296.260834
-15.341423	-6.065000	378.949005
-14.341423	-6.065000	291.118561
-13.341423	-6.065000	233.354935
-12.341423	-6.065000	282.680328
-11.341423	-6.065000	271.245056
-10.341423	-6.065000	309.674316
-9.341423	-6.065000	374.745544
-8.341423	-6.065000	439.480347
-7.341423	-6.065000	263.179840
-6.341423	-6.065000	146.575272
-5.341423	-6.065000	17.040745
-4.341423	-6.065000	28.878286
-3.341423	-6.065000	10.407696
-2.341423	-6.065000	46.633396
-1.341423	-6.065000	11.178277
-0.341423	-6.065000	5.775383
0.658577	-6.065000	3.733576
1.658577	-6.065000	2.271372
2.658577	-6.065000	75.095451
3.658577	-6.065000	192.891357
4.658577	-6.065000	160.916519
5.658577	-6.065000	177.502243
6.658577	-6.065000	141.426117
7.658577	-6.065000	120.355827
8.658577	-6.065000	5.028913
9.658577	-6.065000	12.061724
10.658577	-6.065000	75.296082
11.658577	-6.065000	160.471039
12.658577	-6.065000	199.150925
13.658577	-6.065000	208.576965
14.658577	-6.065000	211.186218
15.658577	-6.065000	227.206726
16.658577	-6.065000	213.930908
17.658577	-6.065000	65.145782
18.658577	-6.065000	59.104206
19.658577	-6.065000	76.241676
20.658577	-6.065000	47.091030
21.658577	-6.065000	109.891769
22.658577	-6.065000	91.773911
23.658577	-6.065000	130.335144
24.658577	-6.065000	83.411446
-39.341423	-5.065000	32.922070
-38.341423	-5.065000	136.683655
-37.341423	-5.065000	312.067474
-36.341423	-5.065000	332.868469
-35.341423	-5.065000	334.915894
-34.341423	-5.065000	402.986176
-33.341423	-5.065000	502.018555
-32.341423	-5.065000	511.721191
-31.341423	-5.065000	435.112061
-30.341423	-5.065000	412.680389
-29.341423	-5.065000	341.544800
-28.341423	-5.065000	251.401291
-27.341423	-5.065000	244.595978
-26.341423	-5.065000	205.471237
-25.341423	-5.065000	219.469559
-24.341423	-5.065000	354.531036
-23.341423	-5.065000	243.818100
-22.341423	-5.065000	193.200867
-21.341423	-5.065000	194.682480
-20.341423	-5.065000	10.260289
-19.341423	-5.065000	4.687147
-18.341423	-5.065000	5.166438
-17.341423	-5.065000	10.719621
-16.341423	-5.065000	183.440292
-15.341423	-5.065000	279.429016
-14.341423	-5.065000	352.582642
-13.341423	-5.065000	388.080811
-12.341423	-5.065000	342.312683
-11.341423	-5.065000	417.234161
-10.341423	-5.065000	371.771698
-9.341423	-5.065000	468.623383
-8.341423	-5.065000	321.865112
-7.341423	-5.065000	373.994873
-6.341423	-5.065000	349.111908
-5.341423	-5.065000	174.574341
-4.341423	-5.065000	7.956742
-3.341423	-5.065000	4.148966
-2.341423	-5.065000	9.540057
-1.341423	-5.065000	24.376863
-0.341423	-5.065000	61.029018
0.658577	-5.065000	70.765099
1.658577	-5.065000	16.972786
2.658577	-5.065000	8.842758
3.658577	-5.065000	17.549448
4.658577	-5.065000	131.626389
5.658577	-5.065000	157.766373
6.658577	-5.065000	104.368500
7.658577	-5.065000	121.205765
8.658577	-5.065000	11.259397
9.658577	-5.065000	58.726173
10.658577	-5.065000	199.800186
11.658577	-5.065000	182.511063
12.658577	-5.065000	307.174316
13.658577	-5.065000	295.639099
14.658577	-5.065000	279.233521
15.658577	-5.065000	251.071930
16.658577	-5.065000	188.771484
17.658577	-5.065000	130.773773
18.658577	-5.065000	86.814194
19.658577	-5.065000	92.365944
20.658577	-5.065000	90.686081
21.658577	-5.065000	35.793442
22.658577	-5.065000	42.423683
23.658577	-5.065000	76.319427
24.658577	-5.065000	52.119278
-39.341423	-4.065000	4.265205
-38.341423	-4.065000	47.331497
-37.341423	-4.065000	188.764389
-36.341423	-4.065000	144.837357
-35.341423	-4.065000	244.040726
-34.341423	-4.065000	381.108124
-33.341423	-4.065000	427.259216
-32.341423	-4.065000	196.883926
-31.341423	-4.065000	133.661835
-30.341423	-4.065000	139.719223
-29.341423	-4.065000	61.515621
-28.341423	-4.065000	134.426407
-27.341423	-4.065000	279.710449
-26.341423	-4.065000	284.549774
-25.341423	-4.065000	287.077667
-24.341423	-4.065000	265.465302
-23.341423	-4.065000	157.795029
-22.341423	-4.065000	182.257324
-21.341423	-4.065000	245.145554
-20.341423	-4.065000	139.212814
-19.341423	-4.065000	91.394897
-18.341423	-4.065000	41.935719
-17.341423	-4.065000	23.551136
-16.341423	-4.065000	74.483734
-15.341423	-4.065000	314.994049
-14.341423	-4.065000	347.686218
-13.341423	-4.065000	443.327332
-12.341423	-4.065000	253.870117
-11.341423	-4.065000	153.116974
-10.341423	-4.065000	229.809158
-9.341423	-4.065000	226.558517
-8.341423	-4.065000	274.906006
-7.341423	-4.065000	276.198181
-6.341423	-4.065000	167.246521
-5.341423	-4.065000	171.766098
-4.341423	-4.065000	7.864634
-3.341423	-4.065000	2.563776
-2.341423	-4.065000	6.844390
-1.341423	-4.065000	29.089409
-0.341423	-4.065000	127.528992
0.658577	-4.065000	126.669548
1.658577	-4.065000	44.402962
2.658577	-4.065000	0.000000
3.658577	-4.065000	8.716020
4.658577	-4.065000	29.249454
5.658577	-4.065000	102.525269
6.658577	-4.065000	183.380768
7.658577	-4.065000	184.012405
8.658577	-4.065000	134.324982
9.658577	-4.065000	202.452194
10.658577	-4.065000	212.384369
11.658577	-4.065000	107.471497
12.658577	-4.065000	261.944061
13.658577	-4.065000	386.839935
14.658577	-4.065000	278.275696
15.658577	-4.065000	62.907314
16.658577	-4.065000	129.418121
17.658577	-4.065000	182.998688
18.658577	-4.065000	161.913879
19.658577	-4.065000	140.852341
20.658577	-4.065000	105.611549
21.658577	-4.065000	144.965240
22.658577	-4.065000	106.160843
23.658577	-4.065000	119.902283
24.658577	-4.065000	52.457836
-39.341423	-3.065000	0.000000
-38.341423	-3.065000	6.178640
-37.341423	-3.065000	67.745834
-36.341423	-3.065000	129.164536
-35.341423	-3.065000	183.876862
-34.341423	-3.065000	325.682800
-33.341423	-3.065000	171.668701
-32.341423	-3.065000	21.173473
-31.341423	-3.065000	52.955181
-30.341423	-3.065000	345.138306
-29.341423	-3.065000	21.134466
-28.341423	-3.065000	8.261475
-27.341423	-3.065000	66.069878
-26.341423	-3.065000	274.876343
-25.341423	-3.065000	198.340073
-24.341423	-3.065000	303.572968
-23.341423	-3.065000	293.922699
-22.341423	-3.065000	202.726547
-21.341423	-3.065000	237.416275
-20.341423	-3.065000	98.191750
-19.341423	-3.065000	150.808334
-18.341423	-3.065000	129.274017
-17.341423	-3.065000	156.792618
-16.341423	-3.065000	28.942379
-15.341423	-3.065000	214.463638
-14.341423	-3.065000	403.245331
-13.341423	-3.065000	313.026917
-12.341423	-3.065000	188.466934
-11.341423	-3.065000	130.656982
-10.341423	-3.065000	168.637054
-9.341423	-3.065000	141.842224
-8.341423	-3.065000	161.008743
-7.341423	-3.065000	73.097328
-6.341423	-3.065000	109.329132
-5.341423	-3.065000	173.147034
-4.341423	-3.065000	71.582306
-3.341423	-3.065000	39.416695
-2.341423	-3.065000	164.459595
-1.341423	-3.065000	327.337219
-0.341423	-3.065000	350.996643
0.658577	-3.065000	263.083557
1.658577	-3.065000	74.350098
2.658577	-3.065000	9.746346
3.658577	-3.065000	141.242462
4.658577	-3.065000	15.957253
5.658577	-3.065000	81.749428
6.658577	-3.065000	215.480194
7.658577	-3.065000	217.604965
8.658577	-3.065000	190.304428
9.658577	-3.065000	241.356415
10.658577	-3.065000	100.378227
11.658577	-3.065000	131.327087
12.658577	-3.065000	367.714752
13.658577	-3.065000	358.032623
14.658577	-3.065000	312.185181
15.658577	-3.065000	120.805923
16.658577	-3.065000	206.007431
17.658577	-3.065000	200.630875
18.658577	-3.065000	197.809616
19.658577	-3.065000	66.924637
20.658577	-3.065000	95.248337
21.658577	-3.065000	97.891670
22.658577	-3.065000	13.243189
23.658577	-3.065000	49.295097
24.658577	-3.065000	102.966751
-39.341423	-2.065000	5.411474
-38.341423	-2.065000	70.346306
-37.341423	-2.065000	134.789520
-36.341423	-2.065000	18.173801
-35.341423	-2.065000	42.575665
-34.341423	-2.065000	47.785007
-33.341423	-2.065000	25.474596
-32.341423	-2.065000	11.552897
-31.341423	-2.065000	102.812477
-30.341423	-2.065000	224.872177
-29.341423	-2.065000	10.980809
-28.341423	-2.065000	3.559541
-27.341423	-2.065000	34.102913
-26.341423	-2.065000	262.288330
-25.341423	-2.065000	353.051086
-24.341423	-2.065000	390.107117
-23.341423	-2.065000	339.295227
-22.341423	-2.065000	208.432861
-21.341423	-2.065000	126.146835
-20.341423	-2.065000	68.939537
-19.341423	-2.065000	115.212112
-18.341423	-2.065000	24.346527
-17.341423	-2.065000	28.878704
-16.341423	-2.065000	97.328079
-15.341423	-2.065000	403.442841
-14.341423	-2.065000	387.739655
-13.341423	-2.065000	248.695282
-12.341423	-2.065000	164.691269
-11.341423	-2.065000	177.363632
-10.341423	-2.065000	283.464996
-9.341423	-2.065000	164.059799
-8.341423	-2.065000	129.341705
-7.341423	-2.065000	87.959999
-6.341423	-2.065000	130.167313
-5.341423	-2.065000	222.857224
-4.341423	-2.065000	104.389465
-3.341423	-2.065000	95.417778
-2.341423	-2.065000	307.632263
-1.341423	-2.065000	341.131378
-0.341423	-2.065000	362.353149
0.658577	-2.065000	391.307373
1.658577	-2.065000	197.855698
2.658577	-2.065000	21.210724
3.658577	-2.065000	75.482857
4.658577	-2.065000	29.038509
5.658577	-2.065000	139.267456
6.658577	-2.065000	282.583771
7.658577	-2.065000	215.669815
8.658577	-2.065000	146.179688
9.658577	-2.065000	93.003418
10.658577	-2.065000	112.453964
11.658577	-2.065000	123.343178
12.658577	-2.065000	251.891586
13.658577	-2.065000	370.789856
14.658577	-2.065000	306.662506
15.658577	-2.065000	300.317566
16.658577	-2.065000	194.991043
17.658577	-2.065000	163.051834
18.658577	-2.065000	133.246735
19.658577	-2.065000	139.625961
20.658577	-2.065000	107.194412
21.658577	-2.065000	8.162845
22.658577	-2.065000	9.674823
23.658577	-2.065000	39.301579
24.658577	-2.065000	42.424316
-39.341423	-1.065000	2.930989
-38.341423	-1.065000	7.828012
-37.341423	-1.065000	55.830360
-36.341423	-1.065000	25.645802
-35.341423	-1.065000	34.180565
-34.341423	-1.065000	27.148962
-33.341423	-1.065000	147.053070
-32.341423	-1.065000	100.898323
-31.341423	-1.065000	90.675003
-30.341423	-1.065000	46.343723
-29.341423	-1.065000	6.986351
-28.341423	-1.065000	0.000000
-27.341423	-1.065000	5.329963
-26.341423	-1.065000	95.113808
-25.341423	-1.065000	273.075256
-24.341423	-1.065000	348.660706
-23.341423	-1.065000	137.542603
-22.341423	-1.065000	207.742081
-21.341423	-1.065000	86.561516
-20.341423	-1.065000	34.062481
-19.341423	-1.065000	25.804558
-18.341423	-1.065000	27.094851
-17.341423	-1.065000	92.446732
-16.341423	-1.065000	88.008240
-15.341423	-1.065000	230.980682
-14.341423	-1.065000	411.596741
-13.341423	-1.065000	267.653290
-12.341423	-1.065000	261.454102
-11.341423	-1.065000	230.487686
-10.341423	-1.065000	218.612015
-9.341423	-1.065000	125.304459
-8.341423	-1.065000	168.439758
-7.341423	-1.065000	113.323936
-6.341423	-1.065000	136.650467
-5.341423	-1.065000	329.391357
-4.341423	-1.065000	137.465378
-3.341423	-1.065000	72.629395
-2.341423	-1.065000	306.292664
-1.341423	-1.065000	321.314392
-0.341423	-1.065000	348.466339
0.658577	-1.065000	319.875549
1.658577	-1.065000	326.226532
2.658577	-1.065000	179.522232
3.658577	-1.065000	62.022701
4.658577	-1.065000	82.371918
5.658577	-1.065000	170.394409
6.658577	-1.065000	69.691833
7.658577	-1.065000	155.783188
8.658577	-1.065000	52.843647
9.658577	-1.065000	123.124008
10.658577	-1.065000	132.068588
11.658577	-1.065000	288.837250
12.658577	-1.065000	304.918823
13.658577	-1.065000	273.864166
14.658577	-1.065000	319.640747
15.658577	-1.065000	308.680054
16.658577	-1.065000	198.440964
17.658577	-1.065000	172.374802
18.658577	-1.065000	45.068203
19.658577	-1.065000	168.863846
20.658577	-1.065000	110.413567
21.658577	-1.065000	192.931824
22.658577	-1.065000	41.723080
23.658577	-1.065000	40.770329
24.658577	-1.065000	51.151314
-39.341423	-0.065000	5.890893
-38.341423	-0.065000	3.698305
-37.341423	-0.065000	5.294351
-36.341423	-0.065000	8.657269
-35.341423	-0.065000	6.835788
-34.341423	-0.065000	55.875504
-33.341423	-0.065000	74.695786
-32.341423	-0.065000	32.170784
-31.341423	-0.065000	29.892864
-30.341423	-0.065000	11.783862
-29.341423	-0.065000	13.156098
-28.341423	-0.065000	41.242947
-27.341423	-0.065000	10.122446
-26.341423	-0.065000	36.153450
-25.341423	-0.065000	288.961517
-24.341423	-0.065000	337.358490
-23.341423	-0.065000	255.227692
-22.341423	-0.065000	46.736935
-21.341423	-0.065000	19.956503
-20.341423	-0.065000	43.316528
-19.341423	-0.065000	200.539261
-18.341423	-0.065000	163.721146
-17.341423	-0.065000	74.402252
-16.341423	-0.065000	131.453903
-15.341423	-0.065000	73.001213
-14.341423	-0.065000	335.013458
-13.341423	-0.065000	301.307404
-12.341423	-0.065000	340.778656
-11.341423	-0.065000	327.245300
-10.341423	-0.065000	215.023300
-9.341423	-0.065000	127.257050
-8.341423	-0.065000	178.875122
-7.341423	-0.065000	152.185944
-6.341423	-0.065000	202.761597
-5.341423	-0.065000	406.173035
-4.341423	-0.065000	280.168579
-3.341423	-0.065000	226.707809
-2.341423	-0.065000	347.321533
-1.341423	-0.065000	411.105743
-0.341423	-0.065000	329.081909
0.658577	-0.065000	345.023254
1.658577	-0.065000	294.789978
2.658577	-0.065000	93.850273
3.658577	-0.065000	85.910324
4.658577	-0.065000	89.811104
5.658577	-0.065000	214.822998
6.658577	-0.065000	123.691681
7.658577	-0.065000	215.637268
8.658577	-0.065000	179.064194
9.658577	-0.065000	239.049149
10.658577	-0.065000	229.718674
11.658577	-0.065000	461.139160
12.658577	-0.065000	339.691864
13.658577	-0.065000	279.851959
14.658577	-0.065000	256.265717
15.658577	-0.065000	237.045853
16.658577	-0.065000	242.922638
17.658577	-0.065000	193.415222
18.658577	-0.065000	25.448637
19.658577	-0.065000	36.955292
20.658577	-0.065000	190.567307
21.658577	-0.065000	243.806595
22.658577	-0.065000	242.745392
23.658577	-0.065000	40.767097
24.658577	-0.065000	66.753128
-39.341423	0.935000	5.987528
-38.341423	0.935000	2.986647
-37.341423	0.935000	5.260173
-36.341423	0.935000	12.102138
-35.341423	0.935000	37.281399
-34.341423	0.935000	66.659515
-33.341423	0.935000	91.315033
-32.341423	0.935000	73.097542
-31.341423	0.935000	100.005013
-30.341423	0.935000	27.405380
-29.341423	0.935000	6.180065
-28.341423	0.935000	88.788895
-27.341423	0.935000	5.275241
-26.341423	0.935000	39.554073
-25.341423	0.935000	357.695770
-24.341423	0.935000	232.314209
-23.341423	0.935000	309.314575
-22.341423	0.935000	322.934296
-21.341423	0.935000	190.605576
-20.341423	0.935000	99.908699
-19.341423	0.935000	186.361633
-18.341423	0.935000	91.557808
-17.341423	0.935000	132.620163
-16.341423	0.935000	56.154068
-15.341423	0.935000	83.656601
-14.341423	0.935000	408.357452
-13.341423	0.935000	364.115204
-12.341423	0.935000	401.749115
-11.341423	0.935000	334.689026
-10.341423	0.935000	362.732147
-9.341423	0.935000	213.027557
-8.341423	0.935000	160.999344
-7.341423	0.935000	143.503922
-6.341423	0.935000	194.894333
-5.341423	0.935000	425.893921
-4.341423	0.935000	462.208099
-3.341423	0.935000	151.162277
-2.341423	0.935000	325.739899
-1.341423	0.935000	397.403290
-0.341423	0.935000	362.580658
0.658577	0.935000	295.812531
1.658577	0.935000	86.151451
2.658577	0.935000	79.328773
3.658577	0.935000	108.855133
4.658577	0.935000	150.699966
5.658577	0.935000	259.354370
6.658577	0.935000	321.253784
7.658577	0.935000	273.496429
8.658577	0.935000	298.378174
9.658577	0.935000	345.376404
10.658577	0.935000	340.936829
11.658577	0.935000	344.016693
12.658577	0.935000	398.815857
13.658577	0.935000	289.126648
14.658577	0.935000	194.007782
15.658577	0.935000	228.078156
16.658577	0.935000	193.516571
17.658577	0.935000	209.084976
18.658577	0.935000	124.864845
19.658577	0.935000	180.342422
20.658577	0.935000	254.003510
21.658577	0.935000	301.583557
22.658577	0.935000	318.544281
23.658577	0.935000	206.181137
24.658577	0.935000	81.609947
-39.341423	1.935000	10.400693
-38.341423	1.935000	11.145475
-37.341423	1.935000	28.240215
-36.341423	1.935000	108.151405
-35.341423	1.935000	170.477966
-34.341423	1.935000	62.699341
-33.341423	1.935000	108.349976
-32.341423	1.935000	263.184174
-31.341423	1.935000	162.469513
-30.341423	1.935000	119.311203
-29.341423	1.935000	58.392731
-28.341423	1.935000	9.267400
-27.341423	1.935000	27.302355
-26.341423	1.935000	187.383240
-25.341423	1.935000	309.125549
-24.341423	1.935000	73.994659
-23.341423	1.935000	159.583191
-22.341423	1.935000	292.394775
-21.341423	1.935000	374.903717
-20.341423	1.935000	284.364349
-19.341423	1.935000	45.699043
-18.341423	1.935000	9.489702
-17.341423	1.935000	5.402656
-16.341423	1.935000	3.659081
-15.341423	1.935000	49.777287
-14.341423	1.935000	450.634979
-13.341423	1.935000	522.333252
-12.341423	1.935000	474.418823
-11.341423	1.935000	355.492462
-10.341423	1.935000	362.495667
-9.341423	1.935000	239.803757
-8.341423	1.935000	220.946640
-7.341423	1.935000	173.198761
-6.341423	1.935000	235.197159
-5.341423	1.935000	441.267700
-4.341423	1.935000	333.145416
-3.341423	1.935000	421.207001
-2.341423	1.935000	374.567078
-1.341423	1.935000	381.113281
-0.341423	1.935000	330.523590
0.658577	1.935000	226.023117
1.658577	1.935000	51.572948
2.658577	1.935000	126.089249
3.658577	1.935000	91.660034
4.658577	1.935000	107.960213
5.658577	1.935000	278.813049
6.658577	1.935000	356.312134
7.658577	1.935000	240.855255
8.658577	1.935000	160.268768
9.658577	1.935000	366.621521
10.658577	1.935000	328.670319
11.658577	1.935000	340.141693
12.658577	1.935000	363.513184
13.658577	1.935000	311.963562
14.658577	1.935000	321.381104
15.658577	1.935000	207.063980
16.658577	1.935000	173.753326
17.658577	1.935000	230.584686
18.658577	1.935000	67.593628
19.658577	1.935000	98.882179
20.658577	1.935000	186.043304
21.658577	1.935000	227.302124
22.658577	1.935000	259.057953
23.658577	1.935000	243.060394
24.658577	1.935000	321.920227
-39.341423	2.935000	20.424040
-38.341423	2.935000	99.850227
-37.341423	2.935000	154.612579
-36.341423	2.935000	105.600288
-35.341423	2.935000	82.736473
-34.341423	2.935000	24.953331
-33.341423	2.935000	66.184990
-32.341423	2.935000	179.679016
-31.341423	2.935000	157.362274
-30.341423	2.935000	163.502487
-29.341423	2.935000	190.500595
-28.341423	2.935000	145.510910
-27.341423	2.935000	211.917191
-26.341423	2.935000	240.913223
-25.341423	2.935000	369.960541
-24.341423	2.935000	100.522011
-23.341423	2.935000	98.634834
-22.341423	2.935000	153.422882
-21.341423	2.935000	352.625580
-20.341423	2.935000	170.406921
-19.341423	2.935000	35.677498
-18.341423	2.935000	10.744955
-17.341423	2.935000	10.443347
-16.341423	2.935000	0.000000
-15.341423	2.935000	5.530935
-14.341423	2.935000	45.023445
-13.341423	2.935000	134.319321
-12.341423	2.935000	301.604797
-11.341423	2.935000	311.755920
-10.341423	2.935000	385.647827
-9.341423	2.935000	261.093018
-8.341423	2.935000	270.101532
-7.341423	2.935000	193.759155
-6.341423	2.935000	230.223083
-5.341423	2.935000	387.993225
-4.341423	2.935000	349.667969
-3.341423	2.935000	332.028961
-2.341423	2.935000	366.172913
-1.341423	2.935000	303.479401
-0.341423	2.935000	293.273834
0.658577	2.935000	323.576538
1.658577	2.935000	253.008850
2.658577	2.935000	162.659195
3.658577	2.935000	95.736763
4.658577	2.935000	152.845688
5.658577	2.935000	164.993851
6.658577	2.935000	19.466669
7.658577	2.935000	34.931038
8.658577	2.935000	324.128265
9.658577	2.935000	375.205933
10.658577	2.935000	345.353546
11.658577	2.935000	247.828598
12.658577	2.935000	223.017807
13.658577	2.935000	397.772095
14.658577	2.935000	440.261139
15.658577	2.935000	211.860657
16.658577	2.935000	179.597046
17.658577	2.935000	310.307037
18.658577	2.935000	77.394295
19.658577	2.935000	23.270721
20.658577	2.935000	67.687904
21.658577	2.935000	187.080414
22.658577	2.935000	288.923889
23.658577	2.935000	359.114807
24.658577	2.935000	96.514473
-39.341423	3.935000	206.953125
-38.341423	3.935000	195.728485
-37.341423	3.935000	132.081879
-36.341423	3.935000	188.954575
-35.341423	3.935000	171.792114
-34.341423	3.935000	40.690212
-33.341423	3.935000	32.467846
-32.341423	3.935000	123.432617
-31.341423	3.935000	176.262360
-30.341423	3.935000	220.489197
-29.341423	3.935000	244.400833
-28.341423	3.935000	354.641113
-27.341423	3.935000	283.740082
-26.341423	3.935000	266.637573
-25.341423	3.935000	419.562439
-24.341423	3.935000	193.129593
-23.341423	3.935000	84.643394
-22.341423	3.935000	151.938583
-21.341423	3.935000	351.691681
-20.341423	3.935000	328.373108
-19.341423	3.935000	139.694031
-18.341423	3.935000	254.293701
-17.341423	3.935000	216.331314
-16.341423	3.935000	21.876667
-15.341423	3.935000	48.633778
-14.341423	3.935000	8.264859
-13.341423	3.935000	30.289301
-12.341423	3.935000	186.571335
-11.341423	3.935000	247.140366
-10.341423	3.935000	361.083496
-9.341423	3.935000	218.827820
-8.341423	3.935000	103.472855
-7.341423	3.935000	133.201782
-6.341423	3.935000	115.166656
-5.341423	3.935000	345.402130
-4.341423	3.935000	48.706409
-3.341423	3.935000	243.573013
-2.341423	3.935000	378.316498
-1.341423	3.935000	340.989105
-0.341423	3.935000	334.582184
0.658577	3.935000	364.102173
1.658577	3.935000	291.624939
2.658577	3.935000	170.345474
3.658577	3.935000	132.490311
4.658577	3.935000	199.666916
5.658577	3.935000	276.846832
6.658577	3.935000	211.994858
7.658577	3.935000	196.904190
8.658577	3.935000	413.528564
9.658577	3.935000	361.297028
10.658577	3.935000	206.935974
11.658577	3.935000	236.534119
12.658577	3.935000	209.017197
13.658577	3.935000	293.043060
14.658577	3.935000	401.714325
15.658577	3.935000	223.442062
16.658577	3.935000	191.034592
17.658577	3.935000	299.288269
18.658577	3.935000	359.244568
19.658577	3.935000	345.380951
20.658577	3.935000	323.722412
21.658577	3.935000	251.830872
22.658577	3.935000	318.531952
23.658577	3.935000	161.896973
24.658577	3.935000	56.483135
-39.341423	4.935000	416.052032
-38.341423	4.935000	310.250031
-37.341423	4.935000	418.776489
-36.341423	4.935000	531.742065
-35.341423	4.935000	472.552917
-34.341423	4.935000	219.753754
-33.341423	4.935000	69.588539
-32.341423	4.935000	165.147171
-31.341423	4.935000	182.136475
-30.341423	4.935000	203.409378
-29.341423	4.935000	187.314041
-28.341423	4.935000	125.168724
-27.341423	4.935000	138.153610
-26.341423	4.935000	121.164665
-25.341423	4.935000	349.386566
-24.341423	4.935000	234.874908
-23.341423	4.935000	188.255707
-22.341423	4.935000	213.769684
-21.341423	4.935000	145.049896
-20.341423	4.935000	135.244461
-19.341423	4.935000	325.115692
-18.341423	4.935000	333.415039
-17.341423	4.935000	353.642120
-16.341423	4.935000	251.068024
-15.341423	4.935000	193.675980
-14.341423	4.935000	99.221947
-13.341423	4.935000	2.949268
-12.341423	4.935000	60.470249
-11.341423	4.935000	200.467285
-10.341423	4.935000	203.199875
-9.341423	4.935000	332.445190
-8.341423	4.935000	167.884018
-7.341423	4.935000	148.146683
-6.341423	4.935000	36.820980
-5.341423	4.935000	13.047656
-4.341423	4.935000	16.605074
-3.341423	4.935000	248.857910
-2.341423	4.935000	291.008942
-1.341423	4.935000	280.933807
-0.341423	4.935000	318.921692
0.658577	4.935000	338.241150
1.658577	4.935000	275.541718
2.658577	4.935000	145.031845
3.658577	4.935000	125.403793
4.658577	4.935000	86.831879
5.658577	4.935000	179.644882
6.658577	4.935000	285.622620
7.658577	4.935000	277.344696
8.658577	4.935000	424.967651
9.658577	4.935000	436.717926
10.658577	4.935000	313.494965
11.658577	4.935000	209.525681
12.658577	4.935000	267.194855
13.658577	4.935000	264.550995
14.658577	4.935000	373.741577
15.658577	4.935000	311.868195
16.658577	4.935000	280.218445
17.658577	4.935000	282.939331
18.658577	4.935000	363.286133
19.658577	4.935000	348.730835
20.658577	4.935000	224.951920
21.658577	4.935000	287.007233
22.658577	4.935000	277.857727
23.658577	4.935000	175.466034
24.658577	4.935000	61.603649
-39.341423	5.935000	524.951294
-38.341423	5.935000	442.607635
-37.341423	5.935000	466.877258
-36.341423	5.935000	427.990814
-35.341423	5.935000	399.754242
-34.341423	5.935000	323.398376
-33.341423	5.935000	153.111572
-32.341423	5.935000	260.335938
-31.341423	5.935000	58.332699
-30.341423	5.935000	26.038240
-29.341423	5.935000	28.458027
-28.341423	5.935000	4.451845
-27.341423	5.935000	27.208105
-26.341423	5.935000	199.736542
-25.341423	5.935000	313.167755
-24.341423	5.935000	332.145813
-23.341423	5.935000	237.447311
-22.341423	5.935000	68.225075
-21.341423	5.935000	38.602764
-20.341423	5.935000	126.157295
-19.341423	5.935000	401.210907
-18.341423	5.935000	290.409760
-17.341423	5.935000	275.146912
-16.341423	5.935000	323.232483
-15.341423	5.935000	408.027771
-14.341423	5.935000	290.965942
-13.341423	5.935000	39.634418
-12.341423	5.935000	58.522209
-11.341423	5.935000	225.455521
-10.341423	5.935000	303.804474
-9.341423	5.935000	269.987793
-8.341423	5.935000	259.725372
-7.341423	5.935000	88.528618
-6.341423	5.935000	212.949448
-5.341423	5.935000	10.096981
-4.341423	5.935000	16.143766
-3.341423	5.935000	236.128830
-2.341423	5.935000	296.530365
-1.341423	5.935000	296.761871
-0.341423	5.935000	292.141327
0.658577	5.935000	364.719330
1.658577	5.935000	344.414429
2.658577	5.935000	222.951920
3.658577	5.935000	120.303093
4.658577	5.935000	60.709156
5.658577	5.935000	103.959389
6.658577	5.935000	173.437546
7.658577	5.935000	187.480072
8.658577	5.935000	167.371460
9.658577	5.935000	354.476105
10.658577	5.935000	534.052979
11.658577	5.935000	374.623230
12.658577	5.935000	244.552536
13.658577	5.935000	268.028290
14.658577	5.935000	316.915344
15.658577	5.935000	327.665894
16.658577	5.935000	36.101170
17.658577	5.935000	105.521324
18.658577	5.935000	381.221039
19.658577	5.935000	253.025711
20.658577	5.935000	323.635925
21.658577	5.935000	383.253754
22.658577	5.935000	272.081177
23.658577	5.935000	221.866653
24.658577	5.935000	110.525055
-39.341423	6.935000	514.458252
-38.341423	6.935000	509.931580
-37.341423	6.935000	463.628967
-36.341423	6.935000	448.964417
-35.341423	6.935000	384.689850
-34.341423	6.935000	365.411743
-33.341423	6.935000	297.830017
-32.341423	6.935000	337.709412
-31.341423	6.935000	129.226196
-30.341423	6.935000	245.437820
-29.341423	6.935000	170.476898
-28.341423	6.935000	10.201920
-27.341423	6.935000	47.258034
-26.341423	6.935000	110.419380
-25.341423	6.935000	202.945572
-24.341423	6.935000	458.015625
-23.341423	6.935000	114.790504
-22.341423	6.935000	90.640564
-21.341423	6.935000	113.001007
-20.341423	6.935000	310.647034
-19.341423	6.935000	392.918884
-18.341423	6.935000	351.201324
-17.341423	6.935000	306.780640
-16.341423	6.935000	340.575928
-15.341423	6.935000	425.731903
-14.341423	6.935000	322.547943
-13.341423	6.935000	270.077972
-12.341423	6.935000	103.829727
-11.341423	6.935000	71.242065
-10.341423	6.935000	106.551994
-9.341423	6.935000	133.082108
-8.341423	6.935000	182.881485
-7.341423	6.935000	157.447571
-6.341423	6.935000	153.416290
-5.341423	6.935000	76.675293
-4.341423	6.935000	51.315823
-3.341423	6.935000	171.107025
-2.341423	6.935000	318.548096
-1.341423	6.935000	305.897522
-0.341423	6.935000	293.757874
0.658577	6.935000	332.372162
1.658577	6.935000	283.552399
2.658577	6.935000	160.683182
3.658577	6.935000	39.225925
4.658577	6.935000	49.283321
5.658577	6.935000	82.781364
6.658577	6.935000	224.601212
7.658577	6.935000	193.512268
8.658577	6.935000	180.057205
9.658577	6.935000	193.057495
10.658577	6.935000	383.980164
11.658577	6.935000	342.142578
12.658577	6.935000	373.702301
13.658577	6.935000	323.771729
14.658577	6.935000	41.813522
15.658577	6.935000	168.813171
16.658577	6.935000	104.719810
17.658577	6.935000	101.077065
18.658577	6.935000	333.932648
19.658577	6.935000	151.309006
20.658577	6.935000	367.767120
21.658577	6.935000	369.884857
22.658577	6.935000	130.907928
23.658577	6.935000	325.534912
24.658577	6.935000	233.654739
-39.341423	7.935000	476.182068
-38.341423	7.935000	451.032715
-37.341423	7.935000	482.543182
-36.341423	7.935000	462.070618
-35.341423	7.935000	442.506073
-34.341423	7.935000	396.029968
-33.341423	7.935000	359.090363
-32.341423	7.935000	332.372162
-31.341423	7.935000	269.956390
-30.341423	7.935000	304.067596
-29.341423	7.935000	280.807556
-28.341423	7.935000	86.692566
-27.341423	7.935000	113.378983
-26.341423	7.935000	132.011978
-25.341423	7.935000	169.694366
-24.341423	7.935000	137.000336
-23.341423	7.935000	136.199173
-22.341423	7.935000	94.126740
-21.341423	7.935000	89.127266
-20.341423	7.935000	185.298828
-19.341423	7.935000	207.688416
-18.341423	7.935000	277.940063
-17.341423	7.935000	155.000381
-16.341423	7.935000	288.482452
-15.341423	7.935000	515.965759
-14.341423	7.935000	246.705841
-13.341423	7.935000	209.036224
-12.341423	7.935000	378.810486
-11.341423	7.935000	96.147614
-10.341423	7.935000	78.337852
-9.341423	7.935000	86.840683
-8.341423	7.935000	93.136078
-7.341423	7.935000	82.687683
-6.341423	7.935000	150.087585
-5.341423	7.935000	234.437622
-4.341423	7.935000	100.726120
-3.341423	7.935000	154.668091
-2.341423	7.935000	278.145996
-1.341423	7.935000	336.487305
-0.341423	7.935000	339.567291
0.658577	7.935000	329.282776
1.658577	7.935000	245.047913
2.658577	7.935000	219.635895
3.658577	7.935000	122.440445
4.658577	7.935000	129.448761
5.658577	7.935000	70.199501
6.658577	7.935000	51.741512
7.658577	7.935000	121.256081
8.658577	7.935000	253.870270
9.658577	7.935000	235.511612
10.658577	7.935000	299.180725
11.658577	7.935000	280.156860
12.658577	7.935000	293.853821
13.658577	7.935000	212.323975
14.658577	7.935000	146.800751
15.658577	7.935000	139.235214
16.658577	7.935000	149.612747
17.658577	7.935000	174.514191
18.658577	7.935000	123.402061
19.658577	7.935000	14.418838
20.658577	7.935000	89.922577
21.658577	7.935000	271.208344
22.658577	7.935000	275.038940
23.658577	7.935000	229.209656
24.658577	7.935000	353.386108
-39.341423	8.935000	460.687439
-38.341423	8.935000	384.210907
-37.341423	8.935000	386.750763
-36.341423	8.935000	380.457794
-35.341423	8.935000	443.422821
-34.341423	8.935000	480.100739
-33.341423	8.935000	434.482758
-32.341423	8.935000	409.760590
-31.341423	8.935000	382.006836
-30.341423	8.935000	297.199249
-29.341423	8.935000	246.240723
-28.341423	8.935000	221.594772
-27.341423	8.935000	168.266357
-26.341423	8.935000	181.189590
-25.341423	8.935000	174.224243
-24.341423	8.935000	145.773712
-23.341423	8.935000	105.083466
-22.341423	8.935000	118.297089
-21.341423	8.935000	113.236710
-20.341423	8.935000	167.903748
-19.341423	8.935000	206.477661
-18.341423	8.935000	214.491882
-17.341423	8.935000	335.992157
-16.341423	8.935000	395.155914
-15.341423	8.935000	537.894531
-14.341423	8.935000	288.220642
-13.341423	8.935000	327.324799
-12.341423	8.935000	200.483582
-11.341423	8.935000	91.964966
-10.341423	8.935000	78.260475
-9.341423	8.935000	80.881050
-8.341423	8.935000	76.875443
-7.341423	8.935000	109.052032
-6.341423	8.935000	201.962967
-5.341423	8.935000	148.912415
-4.341423	8.935000	141.564667
-3.341423	8.935000	183.632477
-2.341423	8.935000	243.922836
-1.341423	8.935000	378.533722
-0.341423	8.935000	392.885223
0.658577	8.935000	331.940308
1.658577	8.935000	205.921402
2.658577	8.935000	140.274414
3.658577	8.935000	48.064686
4.658577	8.935000	223.419693
5.658577	8.935000	84.752769
6.658577	8.935000	54.193218
7.658577	8.935000	66.922081
8.658577	8.935000	59.557426
9.658577	8.935000	160.951859
10.658577	8.935000	148.838898
11.658577	8.935000	101.186028
12.658577	8.935000	254.267807
13.658577	8.935000	29.750233
14.658577	8.935000	131.466263
15.658577	8.935000	17.582354
16.658577	8.935000	30.739088
17.658577	8.935000	208.498764
18.658577	8.935000	8.632663
19.658577	8.935000	3.581131
20.658577	8.935000	2.593493
21.658577	8.935000	18.267302
22.658577	8.935000	16.374071
23.658577	8.935000	14.929116
24.658577	8.935000	117.352493
-39.341423	9.935000	401.024536
-38.341423	9.935000	340.045410
-37.341423	9.935000	308.008728
-36.341423	9.935000	335.277405
-35.341423	9.935000	410.550201
-34.341423	9.935000	411.492249
-33.341423	9.935000	359.287933
-32.341423	9.935000	417.857391
-31.341423	9.935000	437.240387
-30.341423	9.935000	345.806366
-29.341423	9.935000	354.612701
-28.341423	9.935000	282.246185
-27.341423	9.935000	189.655594
-26.341423	9.935000	158.091446
-25.341423	9.935000	134.033081
-24.341423	9.935000	43.600090
-23.341423	9.935000	121.419243
-22.341423	9.935000	171.623672
-21.341423	9.935000	206.311691
-20.341423	9.935000	167.272247
-19.341423	9.935000	218.089005
-18.341423	9.935000	232.194473
-17.341423	9.935000	350.882721
-16.341423	9.935000	326.495544
-15.341423	9.935000	281.268097
-14.341423	9.935000	392.099670
-13.341423	9.935000	275.530121
-12.341423	9.935000	202.691559
-11.341423	9.935000	102.548904
-10.341423	9.935000	81.970184
-9.341423	9.935000	73.877136
-8.341423	9.935000	88.640182
-7.341423	9.935000	129.190323
-6.341423	9.935000	386.645020
-5.341423	9.935000	333.758057
-4.341423	9.935000	263.410828
-3.341423	9.935000	156.891708
-2.341423	9.935000	213.401917
-1.341423	9.935000	385.589905
-0.341423	9.935000	400.870117
0.658577	9.935000	265.810211
1.658577	9.935000	120.720772
2.658577	9.935000	128.216461
3.658577	9.935000	127.394043
4.658577	9.935000	89.779869
5.658577	9.935000	49.955772
6.658577	9.935000	35.816437
7.658577	9.935000	99.966408
8.658577	9.935000	71.436066
9.658577	9.935000	159.959229
10.658577	9.935000	154.205521
11.658577	9.935000	150.619781
12.658577	9.935000	107.820587
13.658577	9.935000	9.757328
14.658577	9.935000	2.095284
15.658577	9.935000	3.752163
16.658577	9.935000	4.852805
17.658577	9.935000	8.945217
18.658577	9.935000	127.064232
19.658577	9.935000	0.000000
20.658577	9.935000	26.896223
21.658577	9.935000	110.031242
22.658577	9.935000	42.953308
23.658577	9.935000	5.394198
24.658577	9.935000	11.770078
-39.341423	10.935000	280.136597
-38.341423	10.935000	321.930206
-37.341423	10.935000	337.343079
-36.341423	10.935000	379.399170
-35.341423	10.935000	377.943420
-34.341423	10.935000	362.957581
-33.341423	10.935000	282.828308
-32.341423	10.935000	346.577820
-31.341423	10.935000	474.385925
-30.341423	10.935000	447.898163
-29.341423	10.935000	438.411407
-28.341423	10.935000	319.775360
-27.341423	10.935000	126.981529
-26.341423	10.935000	147.847229
-25.341423	10.935000	29.683508
-24.341423	10.935000	4.078926
-23.341423	10.935000	33.400249
-22.341423	10.935000	162.138474
-21.341423	10.935000	84.879578
-20.341423	10.935000	139.049957
-19.341423	10.935000	245.539032
-18.341423	10.935000	212.264023
-17.341423	10.935000	196.125366
-16.341423	10.935000	152.466995
-15.341423	10.935000	365.667145
-14.341423	10.935000	259.233826
-13.341423	10.935000	248.782349
-12.341423	10.935000	91.705124
-11.341423	10.935000	79.700089
-10.341423	10.935000	75.684158
-9.341423	10.935000	90.030403
-8.341423	10.935000	91.732300
-7.341423	10.935000	131.482880
-6.341423	10.935000	309.685394
-5.341423	10.935000	371.011627
-4.341423	10.935000	298.246460
-3.341423	10.935000	81.509033
-2.341423	10.935000	160.760666
-1.341423	10.935000	344.227722
-0.341423	10.935000	307.987274
0.658577	10.935000	301.800110
1.658577	10.935000	185.991638
2.658577	10.935000	165.981247
3.658577	10.935000	189.595642
4.658577	10.935000	45.828598
5.658577	10.935000	48.478329
6.658577	10.935000	79.547264
7.658577	10.935000	156.043732
8.658577	10.935000	41.379875
9.658577	10.935000	45.071659
10.658577	10.935000	48.232128
11.658577	10.935000	127.034248
12.658577	10.935000	128.393372
13.658577	10.935000	12.444864
14.658577	10.935000	8.079664
15.658577	10.935000	0.000000
16.658577	10.935000	9.197454
17.658577	10.935000	0.000000
18.658577	10.935000	0.000000
19.658577	10.935000	1.448302
20.658577	10.935000	101.639305
21.658577	10.935000	116.221733
22.658577	10.935000	119.326141
23.658577	10.935000	38.325806
24.658577	10.935000	43.800129
-39.341423	11.935000	313.611816
-38.341423	11.935000	343.045502
-37.341423	11.935000	336.492279
-36.341423	11.935000	381.536865
-35.341423	11.935000	336.184723
-34.341423	11.935000	299.597382
-33.341423	11.935000	251.139130
-32.341423	11.935000	306.157166
-31.341423	11.935000	436.759277
-30.341423	11.935000	465.423492
-29.341423	11.935000	479.407745
-28.341423	11.935000	363.931793
-27.341423	11.935000	34.320969
-26.341423	11.935000	105.595306
-25.341423	11.935000	10.703041
-24.341423	11.935000	9.694776
-23.341423	11.935000	94.950836
-22.341423	11.935000	158.453140
-21.341423	11.935000	91.883354
-20.341423	11.935000	110.526375
-19.341423	11.935000	266.320313
-18.341423	11.935000	148.450272
-17.341423	11.935000	106.832710
-16.341423	11.935000	156.361359
-15.341423	11.935000	418.078491
-14.341423	11.935000	393.936554
-13.341423	11.935000	302.337830
-12.341423	11.935000	103.062927
-11.341423	11.935000	65.105240
-10.341423	11.935000	49.665455
-9.341423	11.935000	84.547165
-8.341423	11.935000	89.079559
-7.341423	11.935000	112.620499
-6.341423	11.935000	110.944153
-5.341423	11.935000	296.306519
-4.341423	11.935000	245.629257
-3.341423	11.935000	121.465454
-2.341423	11.935000	72.705154
-1.341423	11.935000	370.446960
-0.341423	11.935000	340.467529
0.658577	11.935000	266.167694
1.658577	11.935000	183.086441
2.658577	11.935000	141.423553
3.658577	11.935000	31.804369
4.658577	11.935000	16.766146
5.658577	11.935000	94.581688
6.658577	11.935000	235.581329
7.658577	11.935000	245.847504
8.658577	11.935000	255.354965
9.658577	11.935000	149.581726
10.658577	11.935000	263.483154
11.658577	11.935000	236.938736
12.658577	11.935000	229.027145
13.658577	11.935000	62.787376
14.658577	11.935000	4.724792
15.658577	11.935000	0.000000
16.658577	11.935000	0.000000
17.658577	11.935000	83.922668
18.658577	11.935000	17.613655
19.658577	11.935000	4.922447
20.658577	11.935000	34.297550
21.658577	11.935000	72.574120
22.658577	11.935000	133.174866
23.658577	11.935000	148.204956
24.658577	11.935000	141.975342
-39.341423	12.935000	364.820404
-38.341423	12.935000	379.274750
-37.341423	12.935000	363.998993
-36.341423	12.935000	369.140900
-35.341423	12.935000	378.598999
-34.341423	12.935000	374.571503
-33.341423	12.935000	370.410797
-32.341423	12.935000	331.422821
-31.341423	12.935000	398.059967
-30.341423	12.935000	491.873993
-29.341423	12.935000	451.797516
-28.341423	12.935000	194.664108
-27.341423	12.935000	65.420082
-26.341423	12.935000	28.940453
-25.341423	12.935000	6.399900
-24.341423	12.935000	100.537552
-23.341423	12.935000	231.872040
-22.341423	12.935000	237.663818
-21.341423	12.935000	190.815857
-20.341423	12.935000	194.495758
-19.341423	12.935000	327.682953
-18.341423	12.935000	223.836670
-17.341423	12.935000	125.004684
-16.341423	12.935000	141.900146
-15.341423	12.935000	367.097870
-14.341423	12.935000	365.336548
-13.341423	12.935000	205.588989
-12.341423	12.935000	92.755501
-11.341423	12.935000	91.448395
-10.341423	12.935000	73.121490
-9.341423	12.935000	88.244400
-8.341423	12.935000	64.867317
-7.341423	12.935000	117.438820
-6.341423	12.935000	16.145250
-5.341423	12.935000	136.153961
-4.341423	12.935000	316.028137
-3.341423	12.935000	236.813751
-2.341423	12.935000	131.177704
-1.341423	12.935000	202.062714
-0.341423	12.935000	154.903214
0.658577	12.935000	214.352890
1.658577	12.935000	111.441429
2.658577	12.935000	207.156509
3.658577	12.935000	67.929764
4.658577	12.935000	30.907246
5.658577	12.935000	106.965622
6.658577	12.935000	313.062134
7.658577	12.935000	297.045563
8.658577	12.935000	166.560410
9.658577	12.935000	278.641327
10.658577	12.935000	258.889465
11.658577	12.935000	300.496674
12.658577	12.935000	173.572433
13.658577	12.935000	57.006390
14.658577	12.935000	1.065169
15.658577	12.935000	0.000000
16.658577	12.935000	79.397003
17.658577	12.935000	156.353897
18.658577	12.935000	0.000000
19.658577	12.935000	0.000000
20.658577	12.935000	31.056042
21.658577	12.935000	4.646773
22.658577	12.935000	37.686611
23.658577	12.935000	85.133728
24.658577	12.935000	25.789236
-39.341423	13.935000	390.992096
-38.341423	13.935000	395.644257
-37.341423	13.935000	435.296722
-36.341423	13.935000	406.411743
-35.341423	13.935000	410.046265
-34.341423	13.935000	416.596558
-33.341423	13.935000	353.884583
-32.341423	13.935000	344.146851
-31.341423	13.935000	410.922485
-30.341423	13.935000	398.731171
-29.341423	13.935000	273.462067
-28.341423	13.935000	149.068787
-27.341423	13.935000	138.389648
-26.341423	13.935000	118.340744
-25.341423	13.935000	34.246735
-24.341423	13.935000	98.228065
-23.341423	13.935000	151.408646
-22.341423	13.935000	230.424866
-21.341423	13.935000	276.178131
-20.341423	13.935000	220.847061
-19.341423	13.935000	228.193893
-18.341423	13.935000	273.069183
-17.341423	13.935000	77.065704
-16.341423	13.935000	151.452271
-15.341423	13.935000	223.400238
-14.341423	13.935000	392.029083
-13.341423	13.935000	277.191315
-12.341423	13.935000	126.701302
-11.341423	13.935000	179.881271
-10.341423	13.935000	34.833164
-9.341423	13.935000	151.053665
-8.341423	13.935000	78.252159
-7.341423	13.935000	138.439529
-6.341423	13.935000	126.430344
-5.341423	13.935000	178.312225
-4.341423	13.935000	189.646317
-3.341423	13.935000	186.505814
-2.341423	13.935000	69.725281
-1.341423	13.935000	110.388191
-0.341423	13.935000	146.695984
0.658577	13.935000	225.076035
1.658577	13.935000	118.637039
2.658577	13.935000	195.433105
3.658577	13.935000	41.882305
4.658577	13.935000	3.451326
5.658577	13.935000	9.499587
6.658577	13.935000	135.321457
7.658577	13.935000	238.081116
8.658577	13.935000	199.180206
9.658577	13.935000	226.763062
10.658577	13.935000	243.126846
11.658577	13.935000	162.000473
12.658577	13.935000	165.478363
13.658577	13.935000	14.268496
14.658577	13.935000	2.539543
15.658577	13.935000	18.839823
16.658577	13.935000	0.000000
17.658577	13.935000	7.635178
18.658577	13.935000	0.000000
19.658577	13.935000	13.075184
20.658577	13.935000	0.000000
21.658577	13.935000	28.631289
22.658577	13.935000	9.909878
23.658577	13.935000	7.662749
24.658577	13.935000	0.000000
-39.341423	14.935000	464.198639
-38.341423	14.935000	448.557678
-37.341423	14.935000	448.436859
-36.341423	14.935000	450.411621
-35.341423	14.935000	446.143341
-34.341423	14.935000	369.117340
-33.341423	14.935000	376.507568
-32.341423	14.935000	399.776367
-31.341423	14.935000	382.411316
-30.341423	14.935000	313.219086
-29.341423	14.935000	169.025101
-28.341423	14.935000	152.039047
-27.341423	14.935000	135.146637
-26.341423	14.935000	131.537323
-25.341423	14.935000	112.577789
-24.341423	14.935000	43.202164
-23.341423	14.935000	40.100662
-22.341423	14.935000	109.756271
-21.341423	14.935000	329.083466
-20.341423	14.935000	208.069016
-19.341423	14.935000	223.907349
-18.341423	14.935000	176.159744
-17.341423	14.935000	140.356079
-16.341423	14.935000	323.456787
-15.341423	14.935000	208.533798
-14.341423	14.935000	155.275604
-13.341423	14.935000	215.848053
-12.341423	14.935000	206.656204
-11.341423	14.935000	69.332512
-10.341423	14.935000	7.165244
-9.341423	14.935000	12.452021
-8.341423	14.935000	100.758057
-7.341423	14.935000	268.008759
-6.341423	14.935000	326.473541
-5.341423	14.935000	119.671837
-4.341423	14.935000	130.852173
-3.341423	14.935000	102.342262
-2.341423	14.935000	14.598984
-1.341423	14.935000	171.323608
-0.341423	14.935000	172.062943
0.658577	14.935000	116.982193
1.658577	14.935000	215.153061
2.658577	14.935000	229.491867
3.658577	14.935000	64.738899
4.658577	14.935000	8.351082
5.658577	14.935000	31.722258
6.658577	14.935000	7.165141
7.658577	14.935000	29.108128
8.658577	14.935000	168.410812
9.658577	14.935000	257.101471
10.658577	14.935000	203.104477
11.658577	14.935000	147.942215
12.658577	14.935000	146.213165
13.658577	14.935000	7.832916
14.658577	14.935000	0.000000
15.658577	14.935000	0.000000
16.658577	14.935000	3.907944
17.658577	14.935000	0.000000
18.658577	14.935000	4.064318
19.658577	14.935000	8.815961
20.658577	14.935000	0.000000
21.658577	14.935000	0.000000
22.658577	14.935000	0.000000
23.658577	14.935000	173.110275
24.658577	14.935000	0.000000
-39.341423	15.935000	474.340149
-38.341423	15.935000	480.368591
-37.341423	15.935000	419.470581
-36.341423	15.935000	420.007996
-35.341423	15.935000	406.440643
-34.341423	15.935000	363.361450
-33.341423	15.935000	397.066010
-32.341423	15.935000	401.658112
-31.341423	15.935000	332.675079
-30.341423	15.935000	208.193390
-29.341423	15.935000	213.419952
-28.341423	15.935000	140.020538
-27.341423	15.935000	157.116776
-26.341423	15.935000	147.667236
-25.341423	15.935000	121.815567
-24.341423	15.935000	89.618904
-23.341423	15.935000	8.353863
-22.341423	15.935000	8.077610
-21.341423	15.935000	41.606438
-20.341423	15.935000	120.145538
-19.341423	15.935000	197.584656
-18.341423	15.935000	163.196411
-17.341423	15.935000	237.956711
-16.341423	15.935000	326.822296
-15.341423	15.935000	344.019684
-14.341423	15.935000	347.158295
-13.341423	15.935000	379.866791
-12.341423	15.935000	382.791840
-11.341423	15.935000	252.059814
-10.341423	15.935000	8.081224
-9.341423	15.935000	0.854553
-8.341423	15.935000	13.542820
-7.341423	15.935000	172.970337
-6.341423	15.935000	107.514618
-5.341423	15.935000	25.761534
-4.341423	15.935000	28.372213
-3.341423	15.935000	50.184669
-2.341423	15.935000	84.198296
-1.341423	15.935000	145.163025
-0.341423	15.935000	150.197708
0.658577	15.935000	115.848793
1.658577	15.935000	260.602478
2.658577	15.935000	289.057343
3.658577	15.935000	71.219231
4.658577	15.935000	2.921293
5.658577	15.935000	0.000000
6.658577	15.935000	6.300508
7.658577	15.935000	3.623594
8.658577	15.935000	17.978523
9.658577	15.935000	214.129623
10.658577	15.935000	175.272064
11.658577	15.935000	35.357944
12.658577	15.935000	100.561249
13.658577	15.935000	31.680874
14.658577	15.935000	0.000000
15.658577	15.935000	0.000000
16.658577	15.935000	0.000000
17.658577	15.935000	0.000000
18.658577	15.935000	0.371433
19.658577	15.935000	0.000000
20.658577	15.935000	0.000000
21.658577	15.935000	0.000000
22.658577	15.935000	4.267246
23.658577	15.935000	3.129701
24.658577	15.935000	4.241882
