#XList		#YList		#IList		
-39.341423	-21.065000	183.123047
-38.341423	-21.065000	188.028870
-37.341423	-21.065000	213.825272
-36.341423	-21.065000	189.166290
-35.341423	-21.065000	170.280029
-34.341423	-21.065000	185.878372
-33.341423	-21.065000	190.055786
-32.341423	-21.065000	188.042450
-31.341423	-21.065000	196.455399
-30.341423	-21.065000	195.339920
-29.341423	-21.065000	173.767624
-28.341423	-21.065000	173.674026
-27.341423	-21.065000	176.849716
-26.341423	-21.065000	157.363739
-25.341423	-21.065000	159.969376
-24.341423	-21.065000	163.151321
-23.341423	-21.065000	32.139839
-22.341423	-21.065000	87.600258
-21.341423	-21.065000	177.479233
-20.341423	-21.065000	137.636093
-19.341423	-21.065000	197.501663
-18.341423	-21.065000	24.574162
-17.341423	-21.065000	234.468933
-16.341423	-21.065000	191.635315
-15.341423	-21.065000	194.978241
-14.341423	-21.065000	272.962769
-13.341423	-21.065000	183.834717
-12.341423	-21.065000	197.568176
-11.341423	-21.065000	187.776688
-10.341423	-21.065000	2.301729
-9.341423	-21.065000	139.144028
-8.341423	-21.065000	202.283859
-7.341423	-21.065000	193.986359
-6.341423	-21.065000	183.856781
-5.341423	-21.065000	174.844971
-4.341423	-21.065000	181.814987
-3.341423	-21.065000	175.455002
-2.341423	-21.065000	160.912140
-1.341423	-21.065000	166.600433
-0.341423	-21.065000	193.980148
0.658577	-21.065000	183.927368
1.658577	-21.065000	196.043579
2.658577	-21.065000	178.227859
3.658577	-21.065000	171.040863
4.658577	-21.065000	210.483505
5.658577	-21.065000	125.130829
6.658577	-21.065000	0.639823
7.658577	-21.065000	0.639823
8.658577	-21.065000	0.639823
9.658577	-21.065000	51.819118
10.658577	-21.065000	143.709396
11.658577	-21.065000	177.933884
12.658577	-21.065000	185.354263
13.658577	-21.065000	174.997787
14.658577	-21.065000	173.043243
15.658577	-21.065000	188.914001
16.658577	-21.065000	205.435623
17.658577	-21.065000	225.581085
18.658577	-21.065000	193.973770
19.658577	-21.065000	189.562820
20.658577	-21.065000	167.852097
21.658577	-21.065000	128.022476
22.658577	-21.065000	0.639823
23.658577	-21.065000	178.091995
24.658577	-21.065000	5.443398
-39.341423	-20.065000	197.549240
-38.341423	-20.065000	191.758545
-37.341423	-20.065000	207.066849
-36.341423	-20.065000	254.488678
-35.341423	-20.065000	209.074112
-34.341423	-20.065000	190.121948
-33.341423	-20.065000	166.296509
-32.341423	-20.065000	280.990417
-31.341423	-20.065000	189.369293
-30.341423	-20.065000	294.584351
-29.341423	-20.065000	191.042068
-28.341423	-20.065000	161.346451
-27.341423	-20.065000	181.595306
-26.341423	-20.065000	184.473190
-25.341423	-20.065000	178.641449
-24.341423	-20.065000	174.283798
-23.341423	-20.065000	166.302292
-22.341423	-20.065000	190.428284
-21.341423	-20.065000	181.406418
-20.341423	-20.065000	196.283188
-19.341423	-20.065000	204.733505
-18.341423	-20.065000	163.115372
-17.341423	-20.065000	188.682343
-16.341423	-20.065000	190.158432
-15.341423	-20.065000	186.560333
-14.341423	-20.065000	180.161575
-13.341423	-20.065000	185.837189
-12.341423	-20.065000	184.212646
-11.341423	-20.065000	165.935776
-10.341423	-20.065000	176.098297
-9.341423	-20.065000	194.913834
-8.341423	-20.065000	178.478012
-7.341423	-20.065000	175.654343
-6.341423	-20.065000	177.747559
-5.341423	-20.065000	185.394257
-4.341423	-20.065000	197.166077
-3.341423	-20.065000	167.146011
-2.341423	-20.065000	189.374786
-1.341423	-20.065000	174.320847
-0.341423	-20.065000	203.475998
0.658577	-20.065000	172.902115
1.658577	-20.065000	187.493973
2.658577	-20.065000	191.702286
3.658577	-20.065000	164.227463
4.658577	-20.065000	203.084991
5.658577	-20.065000	83.622284
6.658577	-20.065000	15.397532
7.658577	-20.065000	310.870575
8.658577	-20.065000	78.467155
9.658577	-20.065000	179.112778
10.658577	-20.065000	123.879883
11.658577	-20.065000	147.410965
12.658577	-20.065000	165.774384
13.658577	-20.065000	151.859100
14.658577	-20.065000	178.378403
15.658577	-20.065000	170.644287
16.658577	-20.065000	180.711655
17.658577	-20.065000	170.649872
18.658577	-20.065000	181.606628
19.658577	-20.065000	189.984177
20.658577	-20.065000	198.548767
21.658577	-20.065000	189.148926
22.658577	-20.065000	16.794849
23.658577	-20.065000	0.639823
24.658577	-20.065000	0.763488
-39.341423	-19.065000	200.773178
-38.341423	-19.065000	211.779282
-37.341423	-19.065000	206.745285
-36.341423	-19.065000	270.232727
-35.341423	-19.065000	178.046417
-34.341423	-19.065000	156.022797
-33.341423	-19.065000	209.553986
-32.341423	-19.065000	183.528793
-31.341423	-19.065000	189.565353
-30.341423	-19.065000	184.143997
-29.341423	-19.065000	165.916672
-28.341423	-19.065000	179.626221
-27.341423	-19.065000	167.409225
-26.341423	-19.065000	178.572830
-25.341423	-19.065000	179.330475
-24.341423	-19.065000	174.193085
-23.341423	-19.065000	180.881866
-22.341423	-19.065000	172.240997
-21.341423	-19.065000	173.108948
-20.341423	-19.065000	182.911667
-19.341423	-19.065000	191.602722
-18.341423	-19.065000	170.655807
-17.341423	-19.065000	187.203140
-16.341423	-19.065000	193.028549
-15.341423	-19.065000	189.081009
-14.341423	-19.065000	264.455048
-13.341423	-19.065000	200.299179
-12.341423	-19.065000	191.097565
-11.341423	-19.065000	195.409134
-10.341423	-19.065000	193.778015
-9.341423	-19.065000	183.371994
-8.341423	-19.065000	188.617279
-7.341423	-19.065000	171.401215
-6.341423	-19.065000	179.628036
-5.341423	-19.065000	197.070221
-4.341423	-19.065000	178.946609
-3.341423	-19.065000	202.376175
-2.341423	-19.065000	188.594345
-1.341423	-19.065000	187.727356
-0.341423	-19.065000	187.726410
0.658577	-19.065000	202.375671
1.658577	-19.065000	201.775620
2.658577	-19.065000	172.948868
3.658577	-19.065000	160.735703
4.658577	-19.065000	201.193970
5.658577	-19.065000	333.291046
6.658577	-19.065000	210.429016
7.658577	-19.065000	198.568756
8.658577	-19.065000	227.906662
9.658577	-19.065000	186.068741
10.658577	-19.065000	194.831833
11.658577	-19.065000	195.450226
12.658577	-19.065000	186.865662
13.658577	-19.065000	181.516190
14.658577	-19.065000	194.722565
15.658577	-19.065000	203.879578
16.658577	-19.065000	186.549500
17.658577	-19.065000	188.355942
18.658577	-19.065000	188.155411
19.658577	-19.065000	182.954956
20.658577	-19.065000	200.830612
21.658577	-19.065000	202.198181
22.658577	-19.065000	58.471416
23.658577	-19.065000	831.974182
24.658577	-19.065000	69.900810
-39.341423	-18.065000	190.564926
-38.341423	-18.065000	180.414154
-37.341423	-18.065000	218.407486
-36.341423	-18.065000	180.952774
-35.341423	-18.065000	189.294235
-34.341423	-18.065000	103.603981
-33.341423	-18.065000	184.748718
-32.341423	-18.065000	177.093216
-31.341423	-18.065000	185.607178
-30.341423	-18.065000	173.907364
-29.341423	-18.065000	177.674744
-28.341423	-18.065000	187.512146
-27.341423	-18.065000	176.735336
-26.341423	-18.065000	172.657074
-25.341423	-18.065000	172.797745
-24.341423	-18.065000	186.287903
-23.341423	-18.065000	170.931320
-22.341423	-18.065000	183.189178
-21.341423	-18.065000	171.237656
-20.341423	-18.065000	176.004593
-19.341423	-18.065000	177.371994
-18.341423	-18.065000	171.865936
-17.341423	-18.065000	185.130859
-16.341423	-18.065000	183.596115
-15.341423	-18.065000	196.096710
-14.341423	-18.065000	199.776352
-13.341423	-18.065000	190.249359
-12.341423	-18.065000	184.750305
-11.341423	-18.065000	181.902008
-10.341423	-18.065000	186.838058
-9.341423	-18.065000	179.075348
-8.341423	-18.065000	174.369446
-7.341423	-18.065000	182.706955
-6.341423	-18.065000	176.526657
-5.341423	-18.065000	209.989410
-4.341423	-18.065000	185.627548
-3.341423	-18.065000	175.000000
-2.341423	-18.065000	181.721161
-1.341423	-18.065000	180.541428
-0.341423	-18.065000	212.396744
0.658577	-18.065000	195.541779
1.658577	-18.065000	179.172745
2.658577	-18.065000	188.533249
3.658577	-18.065000	199.319626
4.658577	-18.065000	189.906296
5.658577	-18.065000	167.110870
6.658577	-18.065000	193.898773
7.658577	-18.065000	189.918060
8.658577	-18.065000	287.357422
9.658577	-18.065000	187.128998
10.658577	-18.065000	212.014206
11.658577	-18.065000	185.529800
12.658577	-18.065000	188.729431
13.658577	-18.065000	197.667191
14.658577	-18.065000	181.444794
15.658577	-18.065000	177.363724
16.658577	-18.065000	173.053207
17.658577	-18.065000	182.235992
18.658577	-18.065000	178.039719
19.658577	-18.065000	174.999084
20.658577	-18.065000	159.663803
21.658577	-18.065000	202.125275
22.658577	-18.065000	185.918839
23.658577	-18.065000	183.662842
24.658577	-18.065000	196.638672
-39.341423	-17.065000	197.146072
-38.341423	-17.065000	199.771347
-37.341423	-17.065000	195.217377
-36.341423	-17.065000	173.841080
-35.341423	-17.065000	163.129517
-34.341423	-17.065000	141.132690
-33.341423	-17.065000	147.768768
-32.341423	-17.065000	157.082214
-31.341423	-17.065000	176.592896
-30.341423	-17.065000	176.843094
-29.341423	-17.065000	182.439972
-28.341423	-17.065000	166.935791
-27.341423	-17.065000	176.765762
-26.341423	-17.065000	174.183823
-25.341423	-17.065000	181.972946
-24.341423	-17.065000	175.366592
-23.341423	-17.065000	187.212341
-22.341423	-17.065000	179.813950
-21.341423	-17.065000	183.315979
-20.341423	-17.065000	160.725494
-19.341423	-17.065000	160.079178
-18.341423	-17.065000	236.831329
-17.341423	-17.065000	187.785751
-16.341423	-17.065000	193.490326
-15.341423	-17.065000	190.917358
-14.341423	-17.065000	195.271164
-13.341423	-17.065000	184.522858
-12.341423	-17.065000	281.164001
-11.341423	-17.065000	198.458008
-10.341423	-17.065000	184.058777
-9.341423	-17.065000	178.849655
-8.341423	-17.065000	182.045044
-7.341423	-17.065000	197.621521
-6.341423	-17.065000	184.793137
-5.341423	-17.065000	184.263153
-4.341423	-17.065000	185.851105
-3.341423	-17.065000	163.577454
-2.341423	-17.065000	172.344986
-1.341423	-17.065000	179.680161
-0.341423	-17.065000	195.369263
0.658577	-17.065000	198.054596
1.658577	-17.065000	178.786682
2.658577	-17.065000	181.214279
3.658577	-17.065000	210.305435
4.658577	-17.065000	182.133087
5.658577	-17.065000	231.277344
6.658577	-17.065000	194.374634
7.658577	-17.065000	195.456833
8.658577	-17.065000	195.868500
9.658577	-17.065000	191.625107
10.658577	-17.065000	177.638992
11.658577	-17.065000	193.463211
12.658577	-17.065000	203.413864
13.658577	-17.065000	189.483185
14.658577	-17.065000	192.554260
15.658577	-17.065000	186.396179
16.658577	-17.065000	192.278000
17.658577	-17.065000	171.293381
18.658577	-17.065000	136.529266
19.658577	-17.065000	179.093094
20.658577	-17.065000	168.008820
21.658577	-17.065000	180.011398
22.658577	-17.065000	186.327850
23.658577	-17.065000	184.707245
24.658577	-17.065000	197.510788
-39.341423	-16.065000	191.447235
-38.341423	-16.065000	191.476929
-37.341423	-16.065000	185.451630
-36.341423	-16.065000	208.717346
-35.341423	-16.065000	199.283096
-34.341423	-16.065000	212.995255
-33.341423	-16.065000	201.629807
-32.341423	-16.065000	191.715744
-31.341423	-16.065000	199.881317
-30.341423	-16.065000	192.066391
-29.341423	-16.065000	188.837509
-28.341423	-16.065000	156.844162
-27.341423	-16.065000	177.155563
-26.341423	-16.065000	167.068420
-25.341423	-16.065000	179.680359
-24.341423	-16.065000	173.365967
-23.341423	-16.065000	185.536972
-22.341423	-16.065000	182.109039
-21.341423	-16.065000	183.492416
-20.341423	-16.065000	190.704666
-19.341423	-16.065000	288.927979
-18.341423	-16.065000	251.359055
-17.341423	-16.065000	182.410904
-16.341423	-16.065000	283.123322
-15.341423	-16.065000	284.804260
-14.341423	-16.065000	189.939362
-13.341423	-16.065000	286.585724
-12.341423	-16.065000	190.497482
-11.341423	-16.065000	181.961105
-10.341423	-16.065000	166.219162
-9.341423	-16.065000	175.525146
-8.341423	-16.065000	180.600327
-7.341423	-16.065000	162.578568
-6.341423	-16.065000	171.957932
-5.341423	-16.065000	185.419266
-4.341423	-16.065000	183.288605
-3.341423	-16.065000	212.222321
-2.341423	-16.065000	196.233322
-1.341423	-16.065000	181.569962
-0.341423	-16.065000	183.476227
0.658577	-16.065000	203.607422
1.658577	-16.065000	179.879272
2.658577	-16.065000	139.680374
3.658577	-16.065000	202.935730
4.658577	-16.065000	165.961761
5.658577	-16.065000	175.583054
6.658577	-16.065000	195.456116
7.658577	-16.065000	176.390961
8.658577	-16.065000	209.896408
9.658577	-16.065000	181.950546
10.658577	-16.065000	179.224045
11.658577	-16.065000	196.170914
12.658577	-16.065000	188.840591
13.658577	-16.065000	196.309158
14.658577	-16.065000	173.857529
15.658577	-16.065000	182.013519
16.658577	-16.065000	190.342087
17.658577	-16.065000	161.190155
18.658577	-16.065000	181.824661
19.658577	-16.065000	185.114380
20.658577	-16.065000	191.849457
21.658577	-16.065000	197.808029
22.658577	-16.065000	188.099518
23.658577	-16.065000	187.687057
24.658577	-16.065000	186.717728
-39.341423	-15.065000	172.733078
-38.341423	-15.065000	188.164246
-37.341423	-15.065000	163.587509
-36.341423	-15.065000	188.072571
-35.341423	-15.065000	279.817871
-34.341423	-15.065000	193.256302
-33.341423	-15.065000	278.101654
-32.341423	-15.065000	287.377014
-31.341423	-15.065000	196.365814
-30.341423	-15.065000	195.244858
-29.341423	-15.065000	175.501480
-28.341423	-15.065000	182.628525
-27.341423	-15.065000	188.677475
-26.341423	-15.065000	185.697464
-25.341423	-15.065000	179.687027
-24.341423	-15.065000	177.348724
-23.341423	-15.065000	172.504517
-22.341423	-15.065000	164.474945
-21.341423	-15.065000	187.851028
-20.341423	-15.065000	123.623711
-19.341423	-15.065000	182.934006
-18.341423	-15.065000	188.669647
-17.341423	-15.065000	191.155823
-16.341423	-15.065000	183.587067
-15.341423	-15.065000	191.922272
-14.341423	-15.065000	282.258667
-13.341423	-15.065000	183.980728
-12.341423	-15.065000	194.041916
-11.341423	-15.065000	166.598618
-10.341423	-15.065000	171.820526
-9.341423	-15.065000	178.317200
-8.341423	-15.065000	159.166809
-7.341423	-15.065000	170.380707
-6.341423	-15.065000	188.848694
-5.341423	-15.065000	183.432541
-4.341423	-15.065000	215.648438
-3.341423	-15.065000	187.021896
-2.341423	-15.065000	170.303299
-1.341423	-15.065000	183.868759
-0.341423	-15.065000	172.038971
0.658577	-15.065000	181.359207
1.658577	-15.065000	206.328964
2.658577	-15.065000	180.367294
3.658577	-15.065000	203.950958
4.658577	-15.065000	187.418732
5.658577	-15.065000	304.247375
6.658577	-15.065000	194.662674
7.658577	-15.065000	175.607880
8.658577	-15.065000	189.083130
9.658577	-15.065000	196.457031
10.658577	-15.065000	188.171539
11.658577	-15.065000	179.206314
12.658577	-15.065000	177.546722
13.658577	-15.065000	175.455841
14.658577	-15.065000	186.134781
15.658577	-15.065000	137.080566
16.658577	-15.065000	183.310684
17.658577	-15.065000	189.524506
18.658577	-15.065000	191.130997
19.658577	-15.065000	171.785156
20.658577	-15.065000	209.769760
21.658577	-15.065000	172.174759
22.658577	-15.065000	191.786499
23.658577	-15.065000	186.888901
24.658577	-15.065000	202.378250
-39.341423	-14.065000	203.835999
-38.341423	-14.065000	200.218216
-37.341423	-14.065000	286.665344
-36.341423	-14.065000	198.659897
-35.341423	-14.065000	204.789780
-34.341423	-14.065000	200.014252
-33.341423	-14.065000	285.999939
-32.341423	-14.065000	285.595154
-31.341423	-14.065000	198.592361
-30.341423	-14.065000	198.797195
-29.341423	-14.065000	184.243896
-28.341423	-14.065000	189.863876
-27.341423	-14.065000	191.576599
-26.341423	-14.065000	194.719101
-25.341423	-14.065000	180.124557
-24.341423	-14.065000	173.515167
-23.341423	-14.065000	177.022659
-22.341423	-14.065000	183.659973
-21.341423	-14.065000	183.204422
-20.341423	-14.065000	191.888367
-19.341423	-14.065000	149.192307
-18.341423	-14.065000	209.075058
-17.341423	-14.065000	193.235855
-16.341423	-14.065000	185.947006
-15.341423	-14.065000	185.333633
-14.341423	-14.065000	189.505219
-13.341423	-14.065000	187.131454
-12.341423	-14.065000	190.067230
-11.341423	-14.065000	175.902344
-10.341423	-14.065000	179.517441
-9.341423	-14.065000	184.735291
-8.341423	-14.065000	171.741928
-7.341423	-14.065000	177.653671
-6.341423	-14.065000	177.295074
-5.341423	-14.065000	160.961609
-4.341423	-14.065000	182.175201
-3.341423	-14.065000	169.708176
-2.341423	-14.065000	173.234467
-1.341423	-14.065000	168.529953
-0.341423	-14.065000	173.199402
0.658577	-14.065000	181.555740
1.658577	-14.065000	203.791580
2.658577	-14.065000	177.504059
3.658577	-14.065000	185.541611
4.658577	-14.065000	232.659973
5.658577	-14.065000	205.706268
6.658577	-14.065000	202.932159
7.658577	-14.065000	194.242065
8.658577	-14.065000	182.563690
9.658577	-14.065000	194.215820
10.658577	-14.065000	188.979660
11.658577	-14.065000	105.791374
12.658577	-14.065000	168.111313
13.658577	-14.065000	187.173889
14.658577	-14.065000	222.419083
15.658577	-14.065000	60.981499
16.658577	-14.065000	105.922020
17.658577	-14.065000	105.714905
18.658577	-14.065000	216.990143
19.658577	-14.065000	209.916016
20.658577	-14.065000	185.104462
21.658577	-14.065000	169.962799
22.658577	-14.065000	183.538361
23.658577	-14.065000	184.892639
24.658577	-14.065000	217.361450
-39.341423	-13.065000	196.602631
-38.341423	-13.065000	208.041687
-37.341423	-13.065000	188.052948
-36.341423	-13.065000	292.136230
-35.341423	-13.065000	304.907776
-34.341423	-13.065000	287.948456
-33.341423	-13.065000	283.597565
-32.341423	-13.065000	195.809067
-31.341423	-13.065000	200.691483
-30.341423	-13.065000	200.296509
-29.341423	-13.065000	189.253052
-28.341423	-13.065000	179.939392
-27.341423	-13.065000	189.486145
-26.341423	-13.065000	175.549789
-25.341423	-13.065000	174.183411
-24.341423	-13.065000	172.677429
-23.341423	-13.065000	177.550995
-22.341423	-13.065000	190.194504
-21.341423	-13.065000	184.473038
-20.341423	-13.065000	178.487762
-19.341423	-13.065000	174.268005
-18.341423	-13.065000	150.400894
-17.341423	-13.065000	143.234909
-16.341423	-13.065000	147.313675
-15.341423	-13.065000	187.629776
-14.341423	-13.065000	167.112350
-13.341423	-13.065000	177.144852
-12.341423	-13.065000	200.247528
-11.341423	-13.065000	173.286987
-10.341423	-13.065000	185.058685
-9.341423	-13.065000	179.026596
-8.341423	-13.065000	178.999695
-7.341423	-13.065000	194.738434
-6.341423	-13.065000	178.607895
-5.341423	-13.065000	182.863281
-4.341423	-13.065000	200.299683
-3.341423	-13.065000	191.110641
-2.341423	-13.065000	202.170486
-1.341423	-13.065000	202.440811
-0.341423	-13.065000	181.856232
0.658577	-13.065000	191.489319
1.658577	-13.065000	186.301620
2.658577	-13.065000	196.274521
3.658577	-13.065000	206.535156
4.658577	-13.065000	226.627304
5.658577	-13.065000	187.505463
6.658577	-13.065000	184.744171
7.658577	-13.065000	203.552734
8.658577	-13.065000	191.022217
9.658577	-13.065000	191.894547
10.658577	-13.065000	139.432785
11.658577	-13.065000	53.992069
12.658577	-13.065000	124.960617
13.658577	-13.065000	204.383789
14.658577	-13.065000	181.643692
15.658577	-13.065000	182.287308
16.658577	-13.065000	185.021500
17.658577	-13.065000	181.506729
18.658577	-13.065000	181.706146
19.658577	-13.065000	177.699127
20.658577	-13.065000	176.789703
21.658577	-13.065000	192.829788
22.658577	-13.065000	187.732407
23.658577	-13.065000	181.880356
24.658577	-13.065000	185.156265
-39.341423	-12.065000	208.884811
-38.341423	-12.065000	291.501984
-37.341423	-12.065000	197.469284
-36.341423	-12.065000	273.005005
-35.341423	-12.065000	290.889191
-34.341423	-12.065000	198.146790
-33.341423	-12.065000	188.252350
-32.341423	-12.065000	180.570419
-31.341423	-12.065000	189.617294
-30.341423	-12.065000	194.385529
-29.341423	-12.065000	200.384033
-28.341423	-12.065000	187.711517
-27.341423	-12.065000	197.059982
-26.341423	-12.065000	187.083725
-25.341423	-12.065000	176.739166
-24.341423	-12.065000	164.372269
-23.341423	-12.065000	180.377747
-22.341423	-12.065000	184.737793
-21.341423	-12.065000	164.467514
-20.341423	-12.065000	176.712051
-19.341423	-12.065000	174.031219
-18.341423	-12.065000	189.501038
-17.341423	-12.065000	132.061295
-16.341423	-12.065000	162.607483
-15.341423	-12.065000	173.661453
-14.341423	-12.065000	121.786659
-13.341423	-12.065000	179.491669
-12.341423	-12.065000	180.351517
-11.341423	-12.065000	154.854858
-10.341423	-12.065000	176.533127
-9.341423	-12.065000	170.351059
-8.341423	-12.065000	183.166794
-7.341423	-12.065000	195.258331
-6.341423	-12.065000	205.410049
-5.341423	-12.065000	189.652298
-4.341423	-12.065000	192.775879
-3.341423	-12.065000	183.548996
-2.341423	-12.065000	177.023651
-1.341423	-12.065000	196.111450
-0.341423	-12.065000	195.049911
0.658577	-12.065000	195.382507
1.658577	-12.065000	178.581757
2.658577	-12.065000	152.792694
3.658577	-12.065000	219.632080
4.658577	-12.065000	207.280640
5.658577	-12.065000	193.893204
6.658577	-12.065000	191.906891
7.658577	-12.065000	190.525787
8.658577	-12.065000	179.816330
9.658577	-12.065000	213.209351
10.658577	-12.065000	102.141838
11.658577	-12.065000	37.573696
12.658577	-12.065000	172.949844
13.658577	-12.065000	206.836441
14.658577	-12.065000	180.816010
15.658577	-12.065000	181.200089
16.658577	-12.065000	185.815445
17.658577	-12.065000	178.442001
18.658577	-12.065000	179.737030
19.658577	-12.065000	184.538269
20.658577	-12.065000	176.587891
21.658577	-12.065000	204.182144
22.658577	-12.065000	189.260345
23.658577	-12.065000	182.266068
24.658577	-12.065000	210.446136
-39.341423	-11.065000	281.756531
-38.341423	-11.065000	290.876648
-37.341423	-11.065000	191.823669
-36.341423	-11.065000	193.729477
-35.341423	-11.065000	216.938919
-34.341423	-11.065000	192.835724
-33.341423	-11.065000	202.070419
-32.341423	-11.065000	186.921066
-31.341423	-11.065000	190.727936
-30.341423	-11.065000	293.629608
-29.341423	-11.065000	195.190308
-28.341423	-11.065000	292.757629
-27.341423	-11.065000	194.976440
-26.341423	-11.065000	191.315369
-25.341423	-11.065000	182.240189
-24.341423	-11.065000	175.442612
-23.341423	-11.065000	170.592285
-22.341423	-11.065000	168.817276
-21.341423	-11.065000	178.901138
-20.341423	-11.065000	190.352753
-19.341423	-11.065000	179.953217
-18.341423	-11.065000	215.332550
-17.341423	-11.065000	191.393448
-16.341423	-11.065000	162.015274
-15.341423	-11.065000	182.078552
-14.341423	-11.065000	190.502716
-13.341423	-11.065000	155.613693
-12.341423	-11.065000	178.420151
-11.341423	-11.065000	173.675964
-10.341423	-11.065000	190.196442
-9.341423	-11.065000	174.734573
-8.341423	-11.065000	186.913025
-7.341423	-11.065000	187.789902
-6.341423	-11.065000	181.595932
-5.341423	-11.065000	209.519852
-4.341423	-11.065000	169.823242
-3.341423	-11.065000	197.769104
-2.341423	-11.065000	188.004791
-1.341423	-11.065000	198.916077
-0.341423	-11.065000	189.958359
0.658577	-11.065000	178.925568
1.658577	-11.065000	203.677795
2.658577	-11.065000	181.709702
3.658577	-11.065000	150.246368
4.658577	-11.065000	159.882996
5.658577	-11.065000	236.276169
6.658577	-11.065000	173.111420
7.658577	-11.065000	189.060028
8.658577	-11.065000	168.282333
9.658577	-11.065000	53.144989
10.658577	-11.065000	9.628057
11.658577	-11.065000	2.871620
12.658577	-11.065000	187.169846
13.658577	-11.065000	189.997208
14.658577	-11.065000	174.047836
15.658577	-11.065000	175.234100
16.658577	-11.065000	175.667770
17.658577	-11.065000	177.324219
18.658577	-11.065000	190.362411
19.658577	-11.065000	186.056000
20.658577	-11.065000	170.479431
21.658577	-11.065000	137.486496
22.658577	-11.065000	183.936340
23.658577	-11.065000	179.479675
24.658577	-11.065000	184.327866
-39.341423	-10.065000	307.333771
-38.341423	-10.065000	192.796295
-37.341423	-10.065000	298.025360
-36.341423	-10.065000	204.287567
-35.341423	-10.065000	284.357666
-34.341423	-10.065000	199.349609
-33.341423	-10.065000	198.908386
-32.341423	-10.065000	283.516510
-31.341423	-10.065000	195.902451
-30.341423	-10.065000	296.477173
-29.341423	-10.065000	280.166046
-28.341423	-10.065000	299.444031
-27.341423	-10.065000	279.649963
-26.341423	-10.065000	194.447235
-25.341423	-10.065000	191.256668
-24.341423	-10.065000	185.456818
-23.341423	-10.065000	171.800217
-22.341423	-10.065000	167.682083
-21.341423	-10.065000	191.806961
-20.341423	-10.065000	185.843491
-19.341423	-10.065000	178.821487
-18.341423	-10.065000	180.044876
-17.341423	-10.065000	170.718979
-16.341423	-10.065000	188.969315
-15.341423	-10.065000	189.547745
-14.341423	-10.065000	193.833191
-13.341423	-10.065000	208.756531
-12.341423	-10.065000	194.403625
-11.341423	-10.065000	191.394058
-10.341423	-10.065000	194.707779
-9.341423	-10.065000	240.880295
-8.341423	-10.065000	163.669403
-7.341423	-10.065000	184.955811
-6.341423	-10.065000	220.510773
-5.341423	-10.065000	165.167038
-4.341423	-10.065000	199.171829
-3.341423	-10.065000	231.955643
-2.341423	-10.065000	202.635101
-1.341423	-10.065000	187.310638
-0.341423	-10.065000	195.324051
0.658577	-10.065000	189.179672
1.658577	-10.065000	188.759232
2.658577	-10.065000	169.136124
3.658577	-10.065000	157.962387
4.658577	-10.065000	170.750916
5.658577	-10.065000	174.255432
6.658577	-10.065000	175.648926
7.658577	-10.065000	175.787170
8.658577	-10.065000	121.290428
9.658577	-10.065000	1.464880
10.658577	-10.065000	0.639823
11.658577	-10.065000	45.094761
12.658577	-10.065000	196.619736
13.658577	-10.065000	199.324570
14.658577	-10.065000	176.333740
15.658577	-10.065000	183.843475
16.658577	-10.065000	192.804214
17.658577	-10.065000	173.113831
18.658577	-10.065000	156.831711
19.658577	-10.065000	143.709137
20.658577	-10.065000	178.104736
21.658577	-10.065000	157.563187
22.658577	-10.065000	121.473022
23.658577	-10.065000	181.261353
24.658577	-10.065000	169.609467
-39.341423	-9.065000	285.568634
-38.341423	-9.065000	208.344009
-37.341423	-9.065000	197.170395
-36.341423	-9.065000	204.163788
-35.341423	-9.065000	195.370285
-34.341423	-9.065000	301.810150
-33.341423	-9.065000	297.925354
-32.341423	-9.065000	205.077576
-31.341423	-9.065000	189.399643
-30.341423	-9.065000	187.694672
-29.341423	-9.065000	206.477463
-28.341423	-9.065000	196.067871
-27.341423	-9.065000	195.440445
-26.341423	-9.065000	182.365036
-25.341423	-9.065000	179.857498
-24.341423	-9.065000	202.302216
-23.341423	-9.065000	127.750046
-22.341423	-9.065000	123.799583
-21.341423	-9.065000	117.817505
-20.341423	-9.065000	123.081985
-19.341423	-9.065000	177.880493
-18.341423	-9.065000	157.791046
-17.341423	-9.065000	193.347839
-16.341423	-9.065000	192.394028
-15.341423	-9.065000	216.625320
-14.341423	-9.065000	192.479507
-13.341423	-9.065000	196.932571
-12.341423	-9.065000	176.318115
-11.341423	-9.065000	201.455750
-10.341423	-9.065000	306.643829
-9.341423	-9.065000	218.605957
-8.341423	-9.065000	179.780975
-7.341423	-9.065000	170.091782
-6.341423	-9.065000	156.076767
-5.341423	-9.065000	119.736366
-4.341423	-9.065000	148.858475
-3.341423	-9.065000	204.052261
-2.341423	-9.065000	147.357025
-1.341423	-9.065000	194.294647
-0.341423	-9.065000	190.178329
0.658577	-9.065000	182.230301
1.658577	-9.065000	178.535294
2.658577	-9.065000	143.074020
3.658577	-9.065000	166.349228
4.658577	-9.065000	169.203934
5.658577	-9.065000	273.438599
6.658577	-9.065000	179.825897
7.658577	-9.065000	184.851456
8.658577	-9.065000	147.621185
9.658577	-9.065000	0.639823
10.658577	-9.065000	0.639823
11.658577	-9.065000	9.714915
12.658577	-9.065000	186.343811
13.658577	-9.065000	212.562561
14.658577	-9.065000	159.096695
15.658577	-9.065000	206.640213
16.658577	-9.065000	177.307663
17.658577	-9.065000	181.142212
18.658577	-9.065000	145.977188
19.658577	-9.065000	159.067123
20.658577	-9.065000	108.913589
21.658577	-9.065000	173.176025
22.658577	-9.065000	165.268616
23.658577	-9.065000	174.914642
24.658577	-9.065000	199.509171
-39.341423	-8.065000	186.735718
-38.341423	-8.065000	197.595581
-37.341423	-8.065000	203.104828
-36.341423	-8.065000	286.309906
-35.341423	-8.065000	285.777588
-34.341423	-8.065000	195.799835
-33.341423	-8.065000	288.869537
-32.341423	-8.065000	292.907837
-31.341423	-8.065000	187.767334
-30.341423	-8.065000	193.997635
-29.341423	-8.065000	201.318634
-28.341423	-8.065000	196.376022
-27.341423	-8.065000	272.897095
-26.341423	-8.065000	203.409561
-25.341423	-8.065000	199.451035
-24.341423	-8.065000	180.469101
-23.341423	-8.065000	202.208755
-22.341423	-8.065000	166.335434
-21.341423	-8.065000	169.880783
-20.341423	-8.065000	133.307404
-19.341423	-8.065000	187.291199
-18.341423	-8.065000	195.587357
-17.341423	-8.065000	191.958206
-16.341423	-8.065000	194.735992
-15.341423	-8.065000	188.187424
-14.341423	-8.065000	181.313232
-13.341423	-8.065000	194.434158
-12.341423	-8.065000	189.209076
-11.341423	-8.065000	187.769547
-10.341423	-8.065000	307.787872
-9.341423	-8.065000	190.570404
-8.341423	-8.065000	256.360840
-7.341423	-8.065000	126.683601
-6.341423	-8.065000	103.553406
-5.341423	-8.065000	160.746658
-4.341423	-8.065000	130.844742
-3.341423	-8.065000	185.688751
-2.341423	-8.065000	183.979523
-1.341423	-8.065000	145.471603
-0.341423	-8.065000	197.139938
0.658577	-8.065000	183.716736
1.658577	-8.065000	206.933578
2.658577	-8.065000	162.013397
3.658577	-8.065000	194.769928
4.658577	-8.065000	187.528809
5.658577	-8.065000	190.359909
6.658577	-8.065000	188.031525
7.658577	-8.065000	181.655746
8.658577	-8.065000	403.158752
9.658577	-8.065000	0.691043
10.658577	-8.065000	0.639823
11.658577	-8.065000	17.763853
12.658577	-8.065000	183.010880
13.658577	-8.065000	194.111816
14.658577	-8.065000	194.366852
15.658577	-8.065000	208.421524
16.658577	-8.065000	192.857803
17.658577	-8.065000	196.052032
18.658577	-8.065000	158.049149
19.658577	-8.065000	166.469467
20.658577	-8.065000	199.263428
21.658577	-8.065000	156.936157
22.658577	-8.065000	135.363312
23.658577	-8.065000	191.184570
24.658577	-8.065000	175.393585
-39.341423	-7.065000	198.149811
-38.341423	-7.065000	280.992188
-37.341423	-7.065000	212.085938
-36.341423	-7.065000	194.171997
-35.341423	-7.065000	202.984100
-34.341423	-7.065000	206.496368
-33.341423	-7.065000	200.305298
-32.341423	-7.065000	208.688309
-31.341423	-7.065000	192.117264
-30.341423	-7.065000	198.767410
-29.341423	-7.065000	183.743835
-28.341423	-7.065000	187.528702
-27.341423	-7.065000	185.142044
-26.341423	-7.065000	187.642334
-25.341423	-7.065000	198.681030
-24.341423	-7.065000	174.405273
-23.341423	-7.065000	192.882507
-22.341423	-7.065000	187.300354
-21.341423	-7.065000	150.074799
-20.341423	-7.065000	169.563416
-19.341423	-7.065000	171.206314
-18.341423	-7.065000	192.238586
-17.341423	-7.065000	198.345871
-16.341423	-7.065000	197.040207
-15.341423	-7.065000	196.513504
-14.341423	-7.065000	182.105026
-13.341423	-7.065000	187.349030
-12.341423	-7.065000	188.590851
-11.341423	-7.065000	183.864716
-10.341423	-7.065000	201.214584
-9.341423	-7.065000	192.427048
-8.341423	-7.065000	190.745422
-7.341423	-7.065000	147.133743
-6.341423	-7.065000	69.801636
-5.341423	-7.065000	16.095762
-4.341423	-7.065000	106.942169
-3.341423	-7.065000	181.291000
-2.341423	-7.065000	184.223007
-1.341423	-7.065000	130.653915
-0.341423	-7.065000	98.278152
0.658577	-7.065000	83.926788
1.658577	-7.065000	177.112671
2.658577	-7.065000	179.631882
3.658577	-7.065000	175.554688
4.658577	-7.065000	181.603073
5.658577	-7.065000	188.106949
6.658577	-7.065000	185.601959
7.658577	-7.065000	187.387375
8.658577	-7.065000	70.469444
9.658577	-7.065000	51.915550
10.658577	-7.065000	189.295334
11.658577	-7.065000	154.532867
12.658577	-7.065000	182.714706
13.658577	-7.065000	183.235855
14.658577	-7.065000	178.649216
15.658577	-7.065000	190.028259
16.658577	-7.065000	188.334442
17.658577	-7.065000	177.977600
18.658577	-7.065000	172.414413
19.658577	-7.065000	165.609909
20.658577	-7.065000	184.609207
21.658577	-7.065000	168.764191
22.658577	-7.065000	183.317932
23.658577	-7.065000	180.753632
24.658577	-7.065000	166.683395
-39.341423	-6.065000	187.660355
-38.341423	-6.065000	192.810867
-37.341423	-6.065000	288.068573
-36.341423	-6.065000	199.588760
-35.341423	-6.065000	197.931351
-34.341423	-6.065000	201.948288
-33.341423	-6.065000	196.369949
-32.341423	-6.065000	206.747833
-31.341423	-6.065000	197.973297
-30.341423	-6.065000	196.309937
-29.341423	-6.065000	192.622726
-28.341423	-6.065000	194.302887
-27.341423	-6.065000	186.338013
-26.341423	-6.065000	185.740112
-25.341423	-6.065000	271.083588
-24.341423	-6.065000	279.410095
-23.341423	-6.065000	180.685440
-22.341423	-6.065000	181.029770
-21.341423	-6.065000	185.931870
-20.341423	-6.065000	178.392212
-19.341423	-6.065000	97.884422
-18.341423	-6.065000	50.190300
-17.341423	-6.065000	203.001511
-16.341423	-6.065000	199.470032
-15.341423	-6.065000	200.747025
-14.341423	-6.065000	198.606934
-13.341423	-6.065000	189.679230
-12.341423	-6.065000	309.717285
-11.341423	-6.065000	318.578674
-10.341423	-6.065000	203.834854
-9.341423	-6.065000	195.536728
-8.341423	-6.065000	203.662567
-7.341423	-6.065000	206.180023
-6.341423	-6.065000	197.589523
-5.341423	-6.065000	180.865875
-4.341423	-6.065000	0.639823
-3.341423	-6.065000	122.746262
-2.341423	-6.065000	175.034561
-1.341423	-6.065000	103.342545
-0.341423	-6.065000	5.987204
0.658577	-6.065000	58.560066
1.658577	-6.065000	177.150833
2.658577	-6.065000	187.667816
3.658577	-6.065000	179.954239
4.658577	-6.065000	178.203583
5.658577	-6.065000	169.708344
6.658577	-6.065000	184.237946
7.658577	-6.065000	186.254181
8.658577	-6.065000	147.460999
9.658577	-6.065000	155.406937
10.658577	-6.065000	181.970200
11.658577	-6.065000	197.667816
12.658577	-6.065000	188.221313
13.658577	-6.065000	179.693710
14.658577	-6.065000	179.908401
15.658577	-6.065000	186.556259
16.658577	-6.065000	168.595612
17.658577	-6.065000	160.695557
18.658577	-6.065000	162.655319
19.658577	-6.065000	203.172440
20.658577	-6.065000	181.884888
21.658577	-6.065000	176.240204
22.658577	-6.065000	178.297012
23.658577	-6.065000	200.037735
24.658577	-6.065000	180.311676
-39.341423	-5.065000	184.217667
-38.341423	-5.065000	189.717514
-37.341423	-5.065000	262.157318
-36.341423	-5.065000	189.140289
-35.341423	-5.065000	190.547913
-34.341423	-5.065000	292.140045
-33.341423	-5.065000	270.349152
-32.341423	-5.065000	189.421585
-31.341423	-5.065000	258.381683
-30.341423	-5.065000	281.229248
-29.341423	-5.065000	189.288651
-28.341423	-5.065000	189.616974
-27.341423	-5.065000	186.334167
-26.341423	-5.065000	185.470306
-25.341423	-5.065000	181.167648
-24.341423	-5.065000	183.887619
-23.341423	-5.065000	192.019699
-22.341423	-5.065000	192.465424
-21.341423	-5.065000	175.659225
-20.341423	-5.065000	186.634384
-19.341423	-5.065000	47.564835
-18.341423	-5.065000	37.081806
-17.341423	-5.065000	254.052292
-16.341423	-5.065000	211.293961
-15.341423	-5.065000	190.749176
-14.341423	-5.065000	193.745102
-13.341423	-5.065000	193.950394
-12.341423	-5.065000	202.978958
-11.341423	-5.065000	303.773865
-10.341423	-5.065000	187.908401
-9.341423	-5.065000	200.918625
-8.341423	-5.065000	197.804321
-7.341423	-5.065000	197.407089
-6.341423	-5.065000	201.147614
-5.341423	-5.065000	199.754486
-4.341423	-5.065000	31.657135
-3.341423	-5.065000	0.639823
-2.341423	-5.065000	152.994049
-1.341423	-5.065000	155.321228
-0.341423	-5.065000	190.147415
0.658577	-5.065000	172.406509
1.658577	-5.065000	162.814651
2.658577	-5.065000	135.026184
3.658577	-5.065000	157.885544
4.658577	-5.065000	188.955948
5.658577	-5.065000	170.518494
6.658577	-5.065000	187.467484
7.658577	-5.065000	166.310959
8.658577	-5.065000	245.171722
9.658577	-5.065000	173.503662
10.658577	-5.065000	183.903030
11.658577	-5.065000	193.819733
12.658577	-5.065000	187.651428
13.658577	-5.065000	195.600250
14.658577	-5.065000	191.055817
15.658577	-5.065000	188.936539
16.658577	-5.065000	183.535431
17.658577	-5.065000	185.839493
18.658577	-5.065000	168.491959
19.658577	-5.065000	184.974533
20.658577	-5.065000	177.188202
21.658577	-5.065000	151.895737
22.658577	-5.065000	186.776001
23.658577	-5.065000	191.435181
24.658577	-5.065000	175.628662
-39.341423	-4.065000	36.609215
-38.341423	-4.065000	172.081314
-37.341423	-4.065000	183.947220
-36.341423	-4.065000	179.188843
-35.341423	-4.065000	180.117493
-34.341423	-4.065000	294.400177
-33.341423	-4.065000	265.009399
-32.341423	-4.065000	256.769531
-31.341423	-4.065000	181.502411
-30.341423	-4.065000	187.617920
-29.341423	-4.065000	171.561569
-28.341423	-4.065000	185.683334
-27.341423	-4.065000	181.053299
-26.341423	-4.065000	182.707016
-25.341423	-4.065000	191.410660
-24.341423	-4.065000	191.375107
-23.341423	-4.065000	202.234207
-22.341423	-4.065000	187.570862
-21.341423	-4.065000	186.708008
-20.341423	-4.065000	176.655212
-19.341423	-4.065000	183.340744
-18.341423	-4.065000	167.582825
-17.341423	-4.065000	182.224030
-16.341423	-4.065000	202.003433
-15.341423	-4.065000	196.815720
-14.341423	-4.065000	194.403763
-13.341423	-4.065000	298.685211
-12.341423	-4.065000	189.292343
-11.341423	-4.065000	195.333740
-10.341423	-4.065000	222.108002
-9.341423	-4.065000	204.279663
-8.341423	-4.065000	301.392120
-7.341423	-4.065000	194.458130
-6.341423	-4.065000	190.826294
-5.341423	-4.065000	190.827942
-4.341423	-4.065000	105.119987
-3.341423	-4.065000	46.240028
-2.341423	-4.065000	303.361603
-1.341423	-4.065000	160.685928
-0.341423	-4.065000	188.048859
0.658577	-4.065000	183.666595
1.658577	-4.065000	163.472092
2.658577	-4.065000	3.785141
3.658577	-4.065000	109.709686
4.658577	-4.065000	186.658524
5.658577	-4.065000	189.098679
6.658577	-4.065000	188.230469
7.658577	-4.065000	186.562363
8.658577	-4.065000	179.166229
9.658577	-4.065000	181.977966
10.658577	-4.065000	185.015411
11.658577	-4.065000	190.775696
12.658577	-4.065000	188.270981
13.658577	-4.065000	194.083374
14.658577	-4.065000	195.006851
15.658577	-4.065000	188.515015
16.658577	-4.065000	191.302444
17.658577	-4.065000	181.939331
18.658577	-4.065000	180.209717
19.658577	-4.065000	184.103653
20.658577	-4.065000	180.013077
21.658577	-4.065000	181.070541
22.658577	-4.065000	172.678253
23.658577	-4.065000	187.146088
24.658577	-4.065000	170.124924
-39.341423	-3.065000	0.639823
-38.341423	-3.065000	158.490601
-37.341423	-3.065000	176.705002
-36.341423	-3.065000	172.414551
-35.341423	-3.065000	167.995148
-34.341423	-3.065000	195.088348
-33.341423	-3.065000	187.547470
-32.341423	-3.065000	192.228134
-31.341423	-3.065000	227.644882
-30.341423	-3.065000	273.882813
-29.341423	-3.065000	196.748917
-28.341423	-3.065000	86.932991
-27.341423	-3.065000	207.595871
-26.341423	-3.065000	195.299866
-25.341423	-3.065000	163.932220
-24.341423	-3.065000	189.651184
-23.341423	-3.065000	187.976547
-22.341423	-3.065000	187.001205
-21.341423	-3.065000	184.003479
-20.341423	-3.065000	201.364075
-19.341423	-3.065000	185.159653
-18.341423	-3.065000	189.046646
-17.341423	-3.065000	187.298843
-16.341423	-3.065000	157.936829
-15.341423	-3.065000	198.342438
-14.341423	-3.065000	206.898056
-13.341423	-3.065000	197.745453
-12.341423	-3.065000	226.496689
-11.341423	-3.065000	198.916275
-10.341423	-3.065000	196.523972
-9.341423	-3.065000	201.098038
-8.341423	-3.065000	178.001358
-7.341423	-3.065000	215.219635
-6.341423	-3.065000	218.765503
-5.341423	-3.065000	198.954620
-4.341423	-3.065000	180.303146
-3.341423	-3.065000	248.602264
-2.341423	-3.065000	190.133408
-1.341423	-3.065000	268.152802
-0.341423	-3.065000	265.416931
0.658577	-3.065000	190.196777
1.658577	-3.065000	184.582153
2.658577	-3.065000	120.971931
3.658577	-3.065000	180.144455
4.658577	-3.065000	178.284546
5.658577	-3.065000	183.806488
6.658577	-3.065000	183.187531
7.658577	-3.065000	194.999115
8.658577	-3.065000	192.485962
9.658577	-3.065000	182.597839
10.658577	-3.065000	177.608780
11.658577	-3.065000	178.008652
12.658577	-3.065000	282.551605
13.658577	-3.065000	276.481964
14.658577	-3.065000	192.562424
15.658577	-3.065000	175.329224
16.658577	-3.065000	177.110001
17.658577	-3.065000	169.646759
18.658577	-3.065000	168.801010
19.658577	-3.065000	147.038757
20.658577	-3.065000	173.705978
21.658577	-3.065000	170.451996
22.658577	-3.065000	150.749161
23.658577	-3.065000	159.796417
24.658577	-3.065000	184.632370
-39.341423	-2.065000	36.552574
-38.341423	-2.065000	180.824463
-37.341423	-2.065000	175.115295
-36.341423	-2.065000	185.649307
-35.341423	-2.065000	194.272995
-34.341423	-2.065000	193.563004
-33.341423	-2.065000	160.349762
-32.341423	-2.065000	163.442062
-31.341423	-2.065000	211.360199
-30.341423	-2.065000	184.946426
-29.341423	-2.065000	26.936436
-28.341423	-2.065000	99.945496
-27.341423	-2.065000	242.937943
-26.341423	-2.065000	194.665405
-25.341423	-2.065000	288.326111
-24.341423	-2.065000	195.796967
-23.341423	-2.065000	272.321930
-22.341423	-2.065000	179.732178
-21.341423	-2.065000	184.138870
-20.341423	-2.065000	193.247330
-19.341423	-2.065000	177.330124
-18.341423	-2.065000	127.626923
-17.341423	-2.065000	194.332825
-16.341423	-2.065000	179.327881
-15.341423	-2.065000	197.207428
-14.341423	-2.065000	191.939270
-13.341423	-2.065000	190.187973
-12.341423	-2.065000	205.083450
-11.341423	-2.065000	181.170273
-10.341423	-2.065000	201.885101
-9.341423	-2.065000	193.890198
-8.341423	-2.065000	188.518463
-7.341423	-2.065000	224.356232
-6.341423	-2.065000	200.321045
-5.341423	-2.065000	197.921432
-4.341423	-2.065000	192.179382
-3.341423	-2.065000	211.018814
-2.341423	-2.065000	185.860489
-1.341423	-2.065000	181.622406
-0.341423	-2.065000	271.628204
0.658577	-2.065000	187.601135
1.658577	-2.065000	189.780670
2.658577	-2.065000	158.230118
3.658577	-2.065000	177.602356
4.658577	-2.065000	159.053650
5.658577	-2.065000	178.892380
6.658577	-2.065000	188.556244
7.658577	-2.065000	188.409714
8.658577	-2.065000	182.380173
9.658577	-2.065000	178.581299
10.658577	-2.065000	164.140869
11.658577	-2.065000	174.820374
12.658577	-2.065000	188.255508
13.658577	-2.065000	271.164948
14.658577	-2.065000	289.619446
15.658577	-2.065000	185.858307
16.658577	-2.065000	186.190933
17.658577	-2.065000	184.909943
18.658577	-2.065000	190.684036
19.658577	-2.065000	176.635681
20.658577	-2.065000	173.496017
21.658577	-2.065000	186.261887
22.658577	-2.065000	157.064087
23.658577	-2.065000	170.004684
24.658577	-2.065000	150.417343
-39.341423	-1.065000	80.897736
-38.341423	-1.065000	171.032272
-37.341423	-1.065000	178.152924
-36.341423	-1.065000	178.734177
-35.341423	-1.065000	176.485565
-34.341423	-1.065000	240.923981
-33.341423	-1.065000	181.849274
-32.341423	-1.065000	182.282745
-31.341423	-1.065000	179.858246
-30.341423	-1.065000	189.768173
-29.341423	-1.065000	114.613647
-28.341423	-1.065000	0.639823
-27.341423	-1.065000	125.956726
-26.341423	-1.065000	188.515274
-25.341423	-1.065000	184.979584
-24.341423	-1.065000	184.897324
-23.341423	-1.065000	207.352280
-22.341423	-1.065000	181.704102
-21.341423	-1.065000	183.356567
-20.341423	-1.065000	175.050491
-19.341423	-1.065000	205.454391
-18.341423	-1.065000	199.330276
-17.341423	-1.065000	168.419128
-16.341423	-1.065000	182.295731
-15.341423	-1.065000	188.443527
-14.341423	-1.065000	196.286499
-13.341423	-1.065000	210.575745
-12.341423	-1.065000	218.489059
-11.341423	-1.065000	192.432800
-10.341423	-1.065000	181.720551
-9.341423	-1.065000	199.339859
-8.341423	-1.065000	177.659927
-7.341423	-1.065000	201.364044
-6.341423	-1.065000	203.920837
-5.341423	-1.065000	200.465805
-4.341423	-1.065000	186.024658
-3.341423	-1.065000	185.655884
-2.341423	-1.065000	294.499634
-1.341423	-1.065000	289.065430
-0.341423	-1.065000	266.148651
0.658577	-1.065000	185.118622
1.658577	-1.065000	184.692398
2.658577	-1.065000	171.373306
3.658577	-1.065000	177.610870
4.658577	-1.065000	211.962601
5.658577	-1.065000	179.882629
6.658577	-1.065000	176.580399
7.658577	-1.065000	184.359329
8.658577	-1.065000	192.533981
9.658577	-1.065000	193.845886
10.658577	-1.065000	183.373566
11.658577	-1.065000	195.942032
12.658577	-1.065000	188.950241
13.658577	-1.065000	185.192032
14.658577	-1.065000	190.280380
15.658577	-1.065000	183.299957
16.658577	-1.065000	176.231796
17.658577	-1.065000	177.150909
18.658577	-1.065000	196.293335
19.658577	-1.065000	185.153244
20.658577	-1.065000	183.314438
21.658577	-1.065000	187.489304
22.658577	-1.065000	169.743240
23.658577	-1.065000	163.770660
24.658577	-1.065000	146.893295
-39.341423	-0.065000	97.480278
-38.341423	-0.065000	194.689117
-37.341423	-0.065000	54.777817
-36.341423	-0.065000	183.979355
-35.341423	-0.065000	522.426514
-34.341423	-0.065000	182.527878
-33.341423	-0.065000	211.971115
-32.341423	-0.065000	143.746445
-31.341423	-0.065000	147.956512
-30.341423	-0.065000	117.412689
-29.341423	-0.065000	141.056259
-28.341423	-0.065000	0.639823
-27.341423	-0.065000	2.345685
-26.341423	-0.065000	203.454361
-25.341423	-0.065000	194.542572
-24.341423	-0.065000	181.096878
-23.341423	-0.065000	189.231430
-22.341423	-0.065000	196.889618
-21.341423	-0.065000	237.178497
-20.341423	-0.065000	181.109543
-19.341423	-0.065000	181.787933
-18.341423	-0.065000	184.245636
-17.341423	-0.065000	166.828476
-16.341423	-0.065000	184.625626
-15.341423	-0.065000	210.334549
-14.341423	-0.065000	188.749115
-13.341423	-0.065000	190.855820
-12.341423	-0.065000	206.357925
-11.341423	-0.065000	193.586761
-10.341423	-0.065000	188.873901
-9.341423	-0.065000	209.648163
-8.341423	-0.065000	185.453690
-7.341423	-0.065000	208.770187
-6.341423	-0.065000	199.016907
-5.341423	-0.065000	197.456833
-4.341423	-0.065000	196.284378
-3.341423	-0.065000	182.840546
-2.341423	-0.065000	181.468781
-1.341423	-0.065000	182.200729
-0.341423	-0.065000	271.615265
0.658577	-0.065000	256.455811
1.658577	-0.065000	175.827316
2.658577	-0.065000	165.588135
3.658577	-0.065000	187.849411
4.658577	-0.065000	179.640732
5.658577	-0.065000	187.654633
6.658577	-0.065000	201.328873
7.658577	-0.065000	196.674469
8.658577	-0.065000	194.419678
9.658577	-0.065000	185.674881
10.658577	-0.065000	176.954651
11.658577	-0.065000	189.531876
12.658577	-0.065000	279.016968
13.658577	-0.065000	285.343872
14.658577	-0.065000	190.830444
15.658577	-0.065000	183.119843
16.658577	-0.065000	183.360107
17.658577	-0.065000	182.684311
18.658577	-0.065000	195.446182
19.658577	-0.065000	201.022003
20.658577	-0.065000	187.164032
21.658577	-0.065000	180.207809
22.658577	-0.065000	268.949402
23.658577	-0.065000	143.663635
24.658577	-0.065000	190.271439
-39.341423	0.935000	159.060272
-38.341423	0.935000	3.385273
-37.341423	0.935000	272.200409
-36.341423	0.935000	276.645508
-35.341423	0.935000	159.851227
-34.341423	0.935000	200.864288
-33.341423	0.935000	202.084671
-32.341423	0.935000	190.227859
-31.341423	0.935000	165.341232
-30.341423	0.935000	157.143295
-29.341423	0.935000	136.681992
-28.341423	0.935000	0.644328
-27.341423	0.935000	213.347336
-26.341423	0.935000	204.548584
-25.341423	0.935000	278.651581
-24.341423	0.935000	180.914703
-23.341423	0.935000	196.706421
-22.341423	0.935000	194.163910
-21.341423	0.935000	198.172699
-20.341423	0.935000	193.415833
-19.341423	0.935000	189.681030
-18.341423	0.935000	187.877060
-17.341423	0.935000	180.728378
-16.341423	0.935000	188.923462
-15.341423	0.935000	205.526886
-14.341423	0.935000	287.216187
-13.341423	0.935000	202.586136
-12.341423	0.935000	298.803894
-11.341423	0.935000	302.500519
-10.341423	0.935000	194.660782
-9.341423	0.935000	187.657852
-8.341423	0.935000	219.728226
-7.341423	0.935000	196.323380
-6.341423	0.935000	195.867508
-5.341423	0.935000	299.983063
-4.341423	0.935000	192.522537
-3.341423	0.935000	192.032166
-2.341423	0.935000	188.116959
-1.341423	0.935000	184.998962
-0.341423	0.935000	183.973663
0.658577	0.935000	181.507324
1.658577	0.935000	174.968445
2.658577	0.935000	168.491455
3.658577	0.935000	183.517715
4.658577	0.935000	198.970322
5.658577	0.935000	184.376938
6.658577	0.935000	288.440308
7.658577	0.935000	177.398682
8.658577	0.935000	187.013687
9.658577	0.935000	196.390915
10.658577	0.935000	180.854095
11.658577	0.935000	186.626450
12.658577	0.935000	192.471695
13.658577	0.935000	189.438354
14.658577	0.935000	193.014771
15.658577	0.935000	192.203796
16.658577	0.935000	186.329010
17.658577	0.935000	187.248795
18.658577	0.935000	184.943634
19.658577	0.935000	187.164047
20.658577	0.935000	177.872498
21.658577	0.935000	182.620026
22.658577	0.935000	183.473999
23.658577	0.935000	191.422012
24.658577	0.935000	211.847839
-39.341423	1.935000	171.249405
-38.341423	1.935000	208.592545
-37.341423	1.935000	190.127045
-36.341423	1.935000	215.176025
-35.341423	1.935000	180.851852
-34.341423	1.935000	191.783890
-33.341423	1.935000	202.882614
-32.341423	1.935000	194.187851
-31.341423	1.935000	168.560471
-30.341423	1.935000	182.425018
-29.341423	1.935000	212.404327
-28.341423	1.935000	133.458603
-27.341423	1.935000	202.560287
-26.341423	1.935000	189.791199
-25.341423	1.935000	322.668915
-24.341423	1.935000	198.030045
-23.341423	1.935000	179.417816
-22.341423	1.935000	187.690399
-21.341423	1.935000	186.778259
-20.341423	1.935000	183.756332
-19.341423	1.935000	168.249222
-18.341423	1.935000	189.615738
-17.341423	1.935000	199.257294
-16.341423	1.935000	276.069092
-15.341423	1.935000	207.502380
-14.341423	1.935000	190.912125
-13.341423	1.935000	202.529282
-12.341423	1.935000	294.409973
-11.341423	1.935000	197.331726
-10.341423	1.935000	198.686981
-9.341423	1.935000	181.086166
-8.341423	1.935000	211.762619
-7.341423	1.935000	193.509018
-6.341423	1.935000	199.337524
-5.341423	1.935000	193.148041
-4.341423	1.935000	295.766266
-3.341423	1.935000	195.662476
-2.341423	1.935000	185.482941
-1.341423	1.935000	180.732773
-0.341423	1.935000	178.220932
0.658577	1.935000	183.844254
1.658577	1.935000	151.970703
2.658577	1.935000	180.972717
3.658577	1.935000	196.461533
4.658577	1.935000	209.633789
5.658577	1.935000	192.124451
6.658577	1.935000	187.232056
7.658577	1.935000	190.489487
8.658577	1.935000	184.546097
9.658577	1.935000	302.814301
10.658577	1.935000	185.588913
11.658577	1.935000	193.069702
12.658577	1.935000	268.835022
13.658577	1.935000	279.455475
14.658577	1.935000	194.261765
15.658577	1.935000	200.773254
16.658577	1.935000	188.666504
17.658577	1.935000	189.895767
18.658577	1.935000	170.713776
19.658577	1.935000	177.840897
20.658577	1.935000	175.760300
21.658577	1.935000	181.115189
22.658577	1.935000	177.433792
23.658577	1.935000	189.009125
24.658577	1.935000	187.710953
-39.341423	2.935000	131.785767
-38.341423	2.935000	192.771271
-37.341423	2.935000	193.163589
-36.341423	2.935000	178.859512
-35.341423	2.935000	173.490814
-34.341423	2.935000	179.617050
-33.341423	2.935000	191.946518
-32.341423	2.935000	181.348541
-31.341423	2.935000	163.149017
-30.341423	2.935000	171.116852
-29.341423	2.935000	188.883652
-28.341423	2.935000	198.594330
-27.341423	2.935000	183.383957
-26.341423	2.935000	200.707443
-25.341423	2.935000	196.619324
-24.341423	2.935000	190.206223
-23.341423	2.935000	201.812744
-22.341423	2.935000	209.551025
-21.341423	2.935000	192.063538
-20.341423	2.935000	187.207092
-19.341423	2.935000	171.154907
-18.341423	2.935000	139.447021
-17.341423	2.935000	87.987175
-16.341423	2.935000	2595.124023
-15.341423	2.935000	63.065384
-14.341423	2.935000	214.095612
-13.341423	2.935000	191.932251
-12.341423	2.935000	190.685959
-11.341423	2.935000	195.326736
-10.341423	2.935000	293.510406
-9.341423	2.935000	196.681992
-8.341423	2.935000	195.166092
-7.341423	2.935000	183.219345
-6.341423	2.935000	191.461670
-5.341423	2.935000	287.121796
-4.341423	2.935000	263.330780
-3.341423	2.935000	189.264236
-2.341423	2.935000	298.599060
-1.341423	2.935000	194.700455
-0.341423	2.935000	189.947296
0.658577	2.935000	194.308182
1.658577	2.935000	180.129395
2.658577	2.935000	180.019211
3.658577	2.935000	183.295959
4.658577	2.935000	197.322723
5.658577	2.935000	181.649475
6.658577	2.935000	181.522141
7.658577	2.935000	224.126755
8.658577	2.935000	185.218994
9.658577	2.935000	179.584930
10.658577	2.935000	278.116913
11.658577	2.935000	183.445206
12.658577	2.935000	185.151077
13.658577	2.935000	296.453857
14.658577	2.935000	189.936600
15.658577	2.935000	182.869202
16.658577	2.935000	187.433350
17.658577	2.935000	200.739929
18.658577	2.935000	164.724380
19.658577	2.935000	272.600769
20.658577	2.935000	161.729980
21.658577	2.935000	179.094055
22.658577	2.935000	179.446121
23.658577	2.935000	191.117599
24.658577	2.935000	173.925446
-39.341423	3.935000	201.649460
-38.341423	3.935000	175.409775
-37.341423	3.935000	181.039856
-36.341423	3.935000	199.369644
-35.341423	3.935000	191.681305
-34.341423	3.935000	183.993286
-33.341423	3.935000	183.900192
-32.341423	3.935000	181.150665
-31.341423	3.935000	198.488831
-30.341423	3.935000	185.397568
-29.341423	3.935000	190.778900
-28.341423	3.935000	198.237915
-27.341423	3.935000	192.707642
-26.341423	3.935000	179.245560
-25.341423	3.935000	198.843369
-24.341423	3.935000	196.335663
-23.341423	3.935000	245.626923
-22.341423	3.935000	188.504929
-21.341423	3.935000	286.294067
-20.341423	3.935000	187.739883
-19.341423	3.935000	209.566818
-18.341423	3.935000	194.273819
-17.341423	3.935000	177.634918
-16.341423	3.935000	176.287735
-15.341423	3.935000	156.541351
-14.341423	3.935000	191.529907
-13.341423	3.935000	245.362167
-12.341423	3.935000	191.308319
-11.341423	3.935000	295.019012
-10.341423	3.935000	184.650604
-9.341423	3.935000	196.314362
-8.341423	3.935000	184.875198
-7.341423	3.935000	190.397888
-6.341423	3.935000	188.204483
-5.341423	3.935000	189.768311
-4.341423	3.935000	196.749100
-3.341423	3.935000	188.145844
-2.341423	3.935000	178.568665
-1.341423	3.935000	256.866486
-0.341423	3.935000	274.740112
0.658577	3.935000	186.253571
1.658577	3.935000	177.818222
2.658577	3.935000	179.440598
3.658577	3.935000	200.806534
4.658577	3.935000	184.832397
5.658577	3.935000	176.485336
6.658577	3.935000	200.083450
7.658577	3.935000	200.928452
8.658577	3.935000	187.796051
9.658577	3.935000	184.566910
10.658577	3.935000	186.152786
11.658577	3.935000	184.159622
12.658577	3.935000	189.597412
13.658577	3.935000	187.739609
14.658577	3.935000	193.611572
15.658577	3.935000	195.666016
16.658577	3.935000	180.830994
17.658577	3.935000	193.425446
18.658577	3.935000	263.484924
19.658577	3.935000	262.630920
20.658577	3.935000	264.558136
21.658577	3.935000	193.282761
22.658577	3.935000	193.511703
23.658577	3.935000	188.667297
24.658577	3.935000	192.696472
-39.341423	4.935000	313.624634
-38.341423	4.935000	202.001724
-37.341423	4.935000	292.211121
-36.341423	4.935000	197.028625
-35.341423	4.935000	196.833481
-34.341423	4.935000	190.740982
-33.341423	4.935000	175.049973
-32.341423	4.935000	198.493958
-31.341423	4.935000	187.310623
-30.341423	4.935000	180.262146
-29.341423	4.935000	190.417725
-28.341423	4.935000	190.823532
-27.341423	4.935000	182.397583
-26.341423	4.935000	198.514359
-25.341423	4.935000	191.838028
-24.341423	4.935000	303.936920
-23.341423	4.935000	199.786911
-22.341423	4.935000	182.633163
-21.341423	4.935000	184.231247
-20.341423	4.935000	170.401825
-19.341423	4.935000	182.502563
-18.341423	4.935000	195.285568
-17.341423	4.935000	193.740845
-16.341423	4.935000	190.121964
-15.341423	4.935000	193.052979
-14.341423	4.935000	205.207031
-13.341423	4.935000	95.303253
-12.341423	4.935000	179.229919
-11.341423	4.935000	188.123688
-10.341423	4.935000	201.230530
-9.341423	4.935000	187.617462
-8.341423	4.935000	191.101654
-7.341423	4.935000	183.062759
-6.341423	4.935000	204.543152
-5.341423	4.935000	162.681564
-4.341423	4.935000	190.880951
-3.341423	4.935000	267.756744
-2.341423	4.935000	260.150970
-1.341423	4.935000	187.398224
-0.341423	4.935000	271.570099
0.658577	4.935000	277.112579
1.658577	4.935000	183.278793
2.658577	4.935000	189.924866
3.658577	4.935000	197.016388
4.658577	4.935000	191.740540
5.658577	4.935000	193.099503
6.658577	4.935000	297.855377
7.658577	4.935000	185.940552
8.658577	4.935000	185.938065
9.658577	4.935000	192.540329
10.658577	4.935000	188.073395
11.658577	4.935000	188.242142
12.658577	4.935000	194.181351
13.658577	4.935000	185.831940
14.658577	4.935000	190.722900
15.658577	4.935000	271.833771
16.658577	4.935000	175.491394
17.658577	4.935000	174.607620
18.658577	4.935000	271.672729
19.658577	4.935000	267.722504
20.658577	4.935000	188.894592
21.658577	4.935000	184.333878
22.658577	4.935000	288.378021
23.658577	4.935000	190.114395
24.658577	4.935000	188.073914
-39.341423	5.935000	196.748383
-38.341423	5.935000	189.469360
-37.341423	5.935000	287.997162
-36.341423	5.935000	199.461090
-35.341423	5.935000	190.393173
-34.341423	5.935000	184.016724
-33.341423	5.935000	189.521454
-32.341423	5.935000	188.762619
-31.341423	5.935000	180.981689
-30.341423	5.935000	197.868759
-29.341423	5.935000	160.654800
-28.341423	5.935000	171.129715
-27.341423	5.935000	213.269089
-26.341423	5.935000	190.874542
-25.341423	5.935000	194.339172
-24.341423	5.935000	192.709885
-23.341423	5.935000	201.223526
-22.341423	5.935000	205.847748
-21.341423	5.935000	170.384537
-20.341423	5.935000	204.374771
-19.341423	5.935000	278.358368
-18.341423	5.935000	184.517319
-17.341423	5.935000	314.041534
-16.341423	5.935000	189.455856
-15.341423	5.935000	190.837067
-14.341423	5.935000	196.122101
-13.341423	5.935000	194.285660
-12.341423	5.935000	213.667984
-11.341423	5.935000	188.357391
-10.341423	5.935000	196.297104
-9.341423	5.935000	278.840393
-8.341423	5.935000	189.396103
-7.341423	5.935000	181.814423
-6.341423	5.935000	185.926941
-5.341423	5.935000	161.591843
-4.341423	5.935000	139.074463
-3.341423	5.935000	181.178223
-2.341423	5.935000	179.157867
-1.341423	5.935000	182.536026
-0.341423	5.935000	196.558411
0.658577	5.935000	265.836060
1.658577	5.935000	275.455322
2.658577	5.935000	188.250641
3.658577	5.935000	204.393066
4.658577	5.935000	170.351273
5.658577	5.935000	181.460327
6.658577	5.935000	186.666290
7.658577	5.935000	176.134476
8.658577	5.935000	178.960709
9.658577	5.935000	193.649033
10.658577	5.935000	196.708466
11.658577	5.935000	192.923416
12.658577	5.935000	179.972198
13.658577	5.935000	193.626160
14.658577	5.935000	188.669342
15.658577	5.935000	269.546417
16.658577	5.935000	152.783539
17.658577	5.935000	181.957993
18.658577	5.935000	195.989792
19.658577	5.935000	182.959534
20.658577	5.935000	189.277847
21.658577	5.935000	193.377167
22.658577	5.935000	196.769806
23.658577	5.935000	191.408981
24.658577	5.935000	193.377167
-39.341423	6.935000	204.290924
-38.341423	6.935000	302.627625
-37.341423	6.935000	183.393295
-36.341423	6.935000	307.705536
-35.341423	6.935000	189.699310
-34.341423	6.935000	201.660065
-33.341423	6.935000	180.665924
-32.341423	6.935000	198.575500
-31.341423	6.935000	184.169281
-30.341423	6.935000	190.915756
-29.341423	6.935000	172.809692
-28.341423	6.935000	279.005676
-27.341423	6.935000	167.956100
-26.341423	6.935000	179.511108
-25.341423	6.935000	191.457550
-24.341423	6.935000	277.435150
-23.341423	6.935000	172.775482
-22.341423	6.935000	173.624496
-21.341423	6.935000	181.903625
-20.341423	6.935000	283.064575
-19.341423	6.935000	275.692505
-18.341423	6.935000	182.796814
-17.341423	6.935000	193.151596
-16.341423	6.935000	190.092697
-15.341423	6.935000	197.386292
-14.341423	6.935000	200.563156
-13.341423	6.935000	205.034424
-12.341423	6.935000	195.529694
-11.341423	6.935000	171.173660
-10.341423	6.935000	152.126892
-9.341423	6.935000	164.544464
-8.341423	6.935000	182.359940
-7.341423	6.935000	182.271301
-6.341423	6.935000	176.813873
-5.341423	6.935000	186.600632
-4.341423	6.935000	192.972931
-3.341423	6.935000	186.279785
-2.341423	6.935000	189.263199
-1.341423	6.935000	269.121307
-0.341423	6.935000	186.436371
0.658577	6.935000	267.228210
1.658577	6.935000	187.524384
2.658577	6.935000	190.040146
3.658577	6.935000	210.065567
4.658577	6.935000	195.075836
5.658577	6.935000	176.017197
6.658577	6.935000	186.344162
7.658577	6.935000	167.277023
8.658577	6.935000	196.435547
9.658577	6.935000	187.974213
10.658577	6.935000	287.105774
11.658577	6.935000	193.793716
12.658577	6.935000	191.135010
13.658577	6.935000	189.098175
14.658577	6.935000	190.194672
15.658577	6.935000	183.081009
16.658577	6.935000	200.756714
17.658577	6.935000	175.277893
18.658577	6.935000	187.431992
19.658577	6.935000	184.028198
20.658577	6.935000	179.975021
21.658577	6.935000	188.385773
22.658577	6.935000	198.518463
23.658577	6.935000	194.736481
24.658577	6.935000	192.921082
-39.341423	7.935000	202.534241
-38.341423	7.935000	192.638428
-37.341423	7.935000	195.762283
-36.341423	7.935000	204.977432
-35.341423	7.935000	196.380844
-34.341423	7.935000	193.101593
-33.341423	7.935000	198.597076
-32.341423	7.935000	189.457672
-31.341423	7.935000	189.302414
-30.341423	7.935000	187.739548
-29.341423	7.935000	183.053726
-28.341423	7.935000	202.672241
-27.341423	7.935000	175.168945
-26.341423	7.935000	184.003021
-25.341423	7.935000	175.358627
-24.341423	7.935000	186.411667
-23.341423	7.935000	177.855011
-22.341423	7.935000	184.562347
-21.341423	7.935000	168.488937
-20.341423	7.935000	190.200775
-19.341423	7.935000	190.648544
-18.341423	7.935000	180.399155
-17.341423	7.935000	180.065582
-16.341423	7.935000	189.245804
-15.341423	7.935000	193.997787
-14.341423	7.935000	191.482758
-13.341423	7.935000	211.851089
-12.341423	7.935000	190.327881
-11.341423	7.935000	163.994736
-10.341423	7.935000	144.628250
-9.341423	7.935000	161.463608
-8.341423	7.935000	151.471146
-7.341423	7.935000	156.991470
-6.341423	7.935000	184.876465
-5.341423	7.935000	179.321152
-4.341423	7.935000	190.167892
-3.341423	7.935000	180.870178
-2.341423	7.935000	281.141571
-1.341423	7.935000	188.011093
-0.341423	7.935000	180.804703
0.658577	7.935000	258.820618
1.658577	7.935000	186.328018
2.658577	7.935000	180.839706
3.658577	7.935000	174.191696
4.658577	7.935000	180.292465
5.658577	7.935000	216.018448
6.658577	7.935000	178.469635
7.658577	7.935000	202.043488
8.658577	7.935000	178.588028
9.658577	7.935000	184.577805
10.658577	7.935000	282.570007
11.658577	7.935000	191.876633
12.658577	7.935000	250.904877
13.658577	7.935000	184.484848
14.658577	7.935000	179.643631
15.658577	7.935000	179.594025
16.658577	7.935000	179.967346
17.658577	7.935000	178.309402
18.658577	7.935000	185.383850
19.658577	7.935000	134.551941
20.658577	7.935000	199.991180
21.658577	7.935000	265.933655
22.658577	7.935000	186.123566
23.658577	7.935000	186.403107
24.658577	7.935000	189.750641
-39.341423	8.935000	286.301178
-38.341423	8.935000	283.813080
-37.341423	8.935000	211.412857
-36.341423	8.935000	195.472610
-35.341423	8.935000	197.695648
-34.341423	8.935000	197.064011
-33.341423	8.935000	196.072632
-32.341423	8.935000	191.837921
-31.341423	8.935000	186.530121
-30.341423	8.935000	192.537155
-29.341423	8.935000	194.786102
-28.341423	8.935000	178.353989
-27.341423	8.935000	194.499252
-26.341423	8.935000	188.194519
-25.341423	8.935000	187.273483
-24.341423	8.935000	185.471573
-23.341423	8.935000	189.935669
-22.341423	8.935000	171.596436
-21.341423	8.935000	184.083801
-20.341423	8.935000	171.225418
-19.341423	8.935000	192.840851
-18.341423	8.935000	178.901428
-17.341423	8.935000	197.342499
-16.341423	8.935000	188.274704
-15.341423	8.935000	305.580902
-14.341423	8.935000	194.220428
-13.341423	8.935000	191.097443
-12.341423	8.935000	188.822540
-11.341423	8.935000	185.289688
-10.341423	8.935000	147.700653
-9.341423	8.935000	142.450485
-8.341423	8.935000	151.177750
-7.341423	8.935000	158.125854
-6.341423	8.935000	187.003525
-5.341423	8.935000	172.990982
-4.341423	8.935000	177.645538
-3.341423	8.935000	183.439331
-2.341423	8.935000	190.584656
-1.341423	8.935000	267.900299
-0.341423	8.935000	269.403717
0.658577	8.935000	287.236847
1.658577	8.935000	192.846252
2.658577	8.935000	179.228119
3.658577	8.935000	234.077316
4.658577	8.935000	181.481567
5.658577	8.935000	196.363983
6.658577	8.935000	204.148834
7.658577	8.935000	181.132355
8.658577	8.935000	190.562500
9.658577	8.935000	185.063232
10.658577	8.935000	180.457535
11.658577	8.935000	188.256042
12.658577	8.935000	189.913895
13.658577	8.935000	157.755814
14.658577	8.935000	192.174271
15.658577	8.935000	175.591644
16.658577	8.935000	221.714249
17.658577	8.935000	181.014404
18.658577	8.935000	117.557610
19.658577	8.935000	51.742622
20.658577	8.935000	180.729385
21.658577	8.935000	199.210144
22.658577	8.935000	164.705246
23.658577	8.935000	183.802719
24.658577	8.935000	172.065323
-39.341423	9.935000	190.070679
-38.341423	9.935000	195.868057
-37.341423	9.935000	194.744797
-36.341423	9.935000	204.804535
-35.341423	9.935000	186.302689
-34.341423	9.935000	296.425354
-33.341423	9.935000	201.380188
-32.341423	9.935000	296.275909
-31.341423	9.935000	308.579590
-30.341423	9.935000	206.554108
-29.341423	9.935000	217.213196
-28.341423	9.935000	189.908295
-27.341423	9.935000	183.702026
-26.341423	9.935000	197.546173
-25.341423	9.935000	180.347931
-24.341423	9.935000	160.062195
-23.341423	9.935000	175.317474
-22.341423	9.935000	178.199921
-21.341423	9.935000	180.921204
-20.341423	9.935000	183.407242
-19.341423	9.935000	188.551361
-18.341423	9.935000	181.019470
-17.341423	9.935000	193.655426
-16.341423	9.935000	284.132935
-15.341423	9.935000	200.038315
-14.341423	9.935000	200.718811
-13.341423	9.935000	189.603821
-12.341423	9.935000	188.596954
-11.341423	9.935000	187.346909
-10.341423	9.935000	143.657578
-9.341423	9.935000	153.819855
-8.341423	9.935000	135.816971
-7.341423	9.935000	172.448883
-6.341423	9.935000	192.935028
-5.341423	9.935000	279.890930
-4.341423	9.935000	183.012726
-3.341423	9.935000	189.154877
-2.341423	9.935000	176.729584
-1.341423	9.935000	272.690704
-0.341423	9.935000	184.288605
0.658577	9.935000	179.554092
1.658577	9.935000	195.246552
2.658577	9.935000	177.158798
3.658577	9.935000	175.739700
4.658577	9.935000	176.547867
5.658577	9.935000	183.458801
6.658577	9.935000	141.292892
7.658577	9.935000	192.403885
8.658577	9.935000	206.847931
9.658577	9.935000	193.670242
10.658577	9.935000	177.891449
11.658577	9.935000	173.865097
12.658577	9.935000	172.253281
13.658577	9.935000	100.603249
14.658577	9.935000	126.553734
15.658577	9.935000	56.789345
16.658577	9.935000	38.038551
17.658577	9.935000	75.464867
18.658577	9.935000	0.640459
19.658577	9.935000	195.460571
20.658577	9.935000	165.612885
21.658577	9.935000	184.712372
22.658577	9.935000	187.310638
23.658577	9.935000	177.587540
24.658577	9.935000	162.381653
-39.341423	10.935000	201.169189
-38.341423	10.935000	206.570465
-37.341423	10.935000	191.850357
-36.341423	10.935000	192.387192
-35.341423	10.935000	195.780273
-34.341423	10.935000	203.724014
-33.341423	10.935000	210.836517
-32.341423	10.935000	196.410049
-31.341423	10.935000	196.437851
-30.341423	10.935000	285.162750
-29.341423	10.935000	292.211792
-28.341423	10.935000	280.379425
-27.341423	10.935000	179.408173
-26.341423	10.935000	181.427704
-25.341423	10.935000	177.759354
-24.341423	10.935000	66.128960
-23.341423	10.935000	192.707962
-22.341423	10.935000	176.856766
-21.341423	10.935000	173.217270
-20.341423	10.935000	193.255508
-19.341423	10.935000	186.916367
-18.341423	10.935000	186.196854
-17.341423	10.935000	208.465866
-16.341423	10.935000	184.065292
-15.341423	10.935000	199.276031
-14.341423	10.935000	201.315247
-13.341423	10.935000	181.554321
-12.341423	10.935000	178.345825
-11.341423	10.935000	189.092438
-10.341423	10.935000	145.566010
-9.341423	10.935000	157.606415
-8.341423	10.935000	144.357697
-7.341423	10.935000	166.627457
-6.341423	10.935000	184.968094
-5.341423	10.935000	274.968048
-4.341423	10.935000	182.260361
-3.341423	10.935000	183.711472
-2.341423	10.935000	184.051758
-1.341423	10.935000	197.137314
-0.341423	10.935000	181.946274
0.658577	10.935000	186.895340
1.658577	10.935000	194.846436
2.658577	10.935000	187.530106
3.658577	10.935000	177.721375
4.658577	10.935000	180.485382
5.658577	10.935000	165.370590
6.658577	10.935000	188.933716
7.658577	10.935000	191.677414
8.658577	10.935000	187.745529
9.658577	10.935000	158.816513
10.658577	10.935000	208.465561
11.658577	10.935000	198.193039
12.658577	10.935000	192.876251
13.658577	10.935000	169.340683
14.658577	10.935000	0.639823
15.658577	10.935000	0.639823
16.658577	10.935000	2.822755
17.658577	10.935000	0.639823
18.658577	10.935000	781.698242
19.658577	10.935000	5.807861
20.658577	10.935000	187.455780
21.658577	10.935000	190.286026
22.658577	10.935000	183.020676
23.658577	10.935000	174.294800
24.658577	10.935000	172.140549
-39.341423	11.935000	299.966858
-38.341423	11.935000	202.215820
-37.341423	11.935000	283.127899
-36.341423	11.935000	203.086563
-35.341423	11.935000	200.458496
-34.341423	11.935000	199.156281
-33.341423	11.935000	206.860931
-32.341423	11.935000	197.812363
-31.341423	11.935000	287.253662
-30.341423	11.935000	190.614380
-29.341423	11.935000	185.919678
-28.341423	11.935000	190.481964
-27.341423	11.935000	186.996658
-26.341423	11.935000	183.115646
-25.341423	11.935000	167.896454
-24.341423	11.935000	149.585358
-23.341423	11.935000	186.607040
-22.341423	11.935000	179.036591
-21.341423	11.935000	179.940735
-20.341423	11.935000	188.728531
-19.341423	11.935000	191.485626
-18.341423	11.935000	179.771835
-17.341423	11.935000	173.347580
-16.341423	11.935000	177.449387
-15.341423	11.935000	208.915512
-14.341423	11.935000	187.780426
-13.341423	11.935000	282.180695
-12.341423	11.935000	197.229248
-11.341423	11.935000	173.282349
-10.341423	11.935000	167.134369
-9.341423	11.935000	143.267883
-8.341423	11.935000	154.265640
-7.341423	11.935000	165.839279
-6.341423	11.935000	176.124146
-5.341423	11.935000	179.932388
-4.341423	11.935000	189.319519
-3.341423	11.935000	191.933258
-2.341423	11.935000	195.412704
-1.341423	11.935000	184.105087
-0.341423	11.935000	192.846542
0.658577	11.935000	200.074203
1.658577	11.935000	203.128281
2.658577	11.935000	195.371170
3.658577	11.935000	161.602386
4.658577	11.935000	133.548538
5.658577	11.935000	181.566147
6.658577	11.935000	194.424667
7.658577	11.935000	262.325928
8.658577	11.935000	182.345764
9.658577	11.935000	186.813919
10.658577	11.935000	194.342636
11.658577	11.935000	190.884598
12.658577	11.935000	187.096756
13.658577	11.935000	157.957748
14.658577	11.935000	42.490074
15.658577	11.935000	32.467113
16.658577	11.935000	118.513245
17.658577	11.935000	0.639823
18.658577	11.935000	6.658141
19.658577	11.935000	1587.076050
20.658577	11.935000	170.398499
21.658577	11.935000	174.730530
22.658577	11.935000	175.906647
23.658577	11.935000	181.978470
24.658577	11.935000	186.342667
-39.341423	12.935000	201.744690
-38.341423	12.935000	194.834503
-37.341423	12.935000	184.666565
-36.341423	12.935000	198.408508
-35.341423	12.935000	202.261063
-34.341423	12.935000	195.639908
-33.341423	12.935000	195.425949
-32.341423	12.935000	206.317108
-31.341423	12.935000	193.184616
-30.341423	12.935000	290.527069
-29.341423	12.935000	194.031540
-28.341423	12.935000	183.321625
-27.341423	12.935000	172.020554
-26.341423	12.935000	138.909531
-25.341423	12.935000	179.232880
-24.341423	12.935000	174.442871
-23.341423	12.935000	181.012177
-22.341423	12.935000	178.912186
-21.341423	12.935000	179.202225
-20.341423	12.935000	183.175812
-19.341423	12.935000	184.325546
-18.341423	12.935000	189.603638
-17.341423	12.935000	185.848801
-16.341423	12.935000	188.752777
-15.341423	12.935000	191.117920
-14.341423	12.935000	191.329376
-13.341423	12.935000	180.553894
-12.341423	12.935000	181.519684
-11.341423	12.935000	182.308578
-10.341423	12.935000	183.648438
-9.341423	12.935000	193.969879
-8.341423	12.935000	183.024246
-7.341423	12.935000	181.018326
-6.341423	12.935000	205.106583
-5.341423	12.935000	190.783081
-4.341423	12.935000	184.858017
-3.341423	12.935000	190.308624
-2.341423	12.935000	184.283463
-1.341423	12.935000	181.293701
-0.341423	12.935000	178.786011
0.658577	12.935000	188.081268
1.658577	12.935000	185.281311
2.658577	12.935000	208.453506
3.658577	12.935000	173.951614
4.658577	12.935000	143.035660
5.658577	12.935000	179.175278
6.658577	12.935000	190.839462
7.658577	12.935000	196.551422
8.658577	12.935000	182.060959
9.658577	12.935000	186.962616
10.658577	12.935000	197.275391
11.658577	12.935000	196.981796
12.658577	12.935000	175.665558
13.658577	12.935000	193.405777
14.658577	12.935000	37.135288
15.658577	12.935000	0.639823
16.658577	12.935000	0.639823
17.658577	12.935000	0.639823
18.658577	12.935000	212.860443
19.658577	12.935000	111.263359
20.658577	12.935000	0.835806
21.658577	12.935000	10.706415
22.658577	12.935000	202.533157
23.658577	12.935000	182.627304
24.658577	12.935000	177.891281
-39.341423	13.935000	208.158691
-38.341423	13.935000	197.291382
-37.341423	13.935000	192.906754
-36.341423	13.935000	200.224426
-35.341423	13.935000	314.865112
-34.341423	13.935000	291.839661
-33.341423	13.935000	200.062134
-32.341423	13.935000	199.998795
-31.341423	13.935000	193.493271
-30.341423	13.935000	282.217438
-29.341423	13.935000	273.819122
-28.341423	13.935000	171.498184
-27.341423	13.935000	167.165497
-26.341423	13.935000	171.387344
-25.341423	13.935000	181.557465
-24.341423	13.935000	164.385788
-23.341423	13.935000	168.142899
-22.341423	13.935000	188.603668
-21.341423	13.935000	179.188370
-20.341423	13.935000	291.283417
-19.341423	13.935000	197.368607
-18.341423	13.935000	191.040512
-17.341423	13.935000	179.585190
-16.341423	13.935000	188.267624
-15.341423	13.935000	196.926544
-14.341423	13.935000	191.923065
-13.341423	13.935000	184.507111
-12.341423	13.935000	187.417007
-11.341423	13.935000	180.601089
-10.341423	13.935000	183.365707
-9.341423	13.935000	190.918884
-8.341423	13.935000	188.270966
-7.341423	13.935000	162.752121
-6.341423	13.935000	195.373795
-5.341423	13.935000	177.303513
-4.341423	13.935000	195.179840
-3.341423	13.935000	186.490250
-2.341423	13.935000	191.542206
-1.341423	13.935000	171.775909
-0.341423	13.935000	195.127731
0.658577	13.935000	185.438309
1.658577	13.935000	213.104034
2.658577	13.935000	202.147034
3.658577	13.935000	165.607697
4.658577	13.935000	37.280861
5.658577	13.935000	54.380699
6.658577	13.935000	180.820190
7.658577	13.935000	181.194214
8.658577	13.935000	183.458969
9.658577	13.935000	195.917847
10.658577	13.935000	189.852997
11.658577	13.935000	181.159607
12.658577	13.935000	178.851364
13.658577	13.935000	161.048035
14.658577	13.935000	25.304308
15.658577	13.935000	2.026119
16.658577	13.935000	0.639823
17.658577	13.935000	15.825117
18.658577	13.935000	135.523514
19.658577	13.935000	1.431273
20.658577	13.935000	75.970818
21.658577	13.935000	0.888643
22.658577	13.935000	0.639823
23.658577	13.935000	0.639823
24.658577	13.935000	9.903204
-39.341423	14.935000	292.372620
-38.341423	14.935000	274.484985
-37.341423	14.935000	201.788544
-36.341423	14.935000	196.345367
-35.341423	14.935000	291.884827
-34.341423	14.935000	199.082489
-33.341423	14.935000	196.430450
-32.341423	14.935000	194.132248
-31.341423	14.935000	201.065277
-30.341423	14.935000	183.534119
-29.341423	14.935000	168.616913
-28.341423	14.935000	171.396469
-27.341423	14.935000	163.268967
-26.341423	14.935000	155.632782
-25.341423	14.935000	156.892990
-24.341423	14.935000	159.591263
-23.341423	14.935000	178.008865
-22.341423	14.935000	193.436813
-21.341423	14.935000	187.014343
-20.341423	14.935000	196.622314
-19.341423	14.935000	193.869843
-18.341423	14.935000	186.560944
-17.341423	14.935000	177.798553
-16.341423	14.935000	193.255646
-15.341423	14.935000	175.817627
-14.341423	14.935000	197.837708
-13.341423	14.935000	189.544754
-12.341423	14.935000	192.979752
-11.341423	14.935000	197.991318
-10.341423	14.935000	117.850723
-9.341423	14.935000	167.607956
-8.341423	14.935000	181.176224
-7.341423	14.935000	188.061493
-6.341423	14.935000	293.804016
-5.341423	14.935000	183.291443
-4.341423	14.935000	180.885941
-3.341423	14.935000	195.487839
-2.341423	14.935000	245.656677
-1.341423	14.935000	186.216553
-0.341423	14.935000	170.260712
0.658577	14.935000	178.170807
1.658577	14.935000	202.330521
2.658577	14.935000	195.926300
3.658577	14.935000	214.859772
4.658577	14.935000	17.539173
5.658577	14.935000	177.033432
6.658577	14.935000	36.229950
7.658577	14.935000	174.924500
8.658577	14.935000	178.773361
9.658577	14.935000	183.923157
10.658577	14.935000	189.092743
11.658577	14.935000	190.643204
12.658577	14.935000	187.227371
13.658577	14.935000	229.146286
14.658577	14.935000	39.761292
15.658577	14.935000	19.766775
16.658577	14.935000	11.463470
17.658577	14.935000	0.639823
18.658577	14.935000	2.381943
19.658577	14.935000	0.668129
20.658577	14.935000	0.639823
21.658577	14.935000	0.639823
22.658577	14.935000	0.639823
23.658577	14.935000	0.644574
24.658577	14.935000	58.834461
-39.341423	15.935000	204.522888
-38.341423	15.935000	193.918121
-37.341423	15.935000	200.462524
-36.341423	15.935000	207.132492
-35.341423	15.935000	202.126190
-34.341423	15.935000	201.998535
-33.341423	15.935000	193.243134
-32.341423	15.935000	198.912674
-31.341423	15.935000	201.705414
-30.341423	15.935000	198.637741
-29.341423	15.935000	190.263336
-28.341423	15.935000	166.828735
-27.341423	15.935000	165.393890
-26.341423	15.935000	172.282440
-25.341423	15.935000	165.101715
-24.341423	15.935000	183.688553
-23.341423	15.935000	202.230072
-22.341423	15.935000	195.858704
-21.341423	15.935000	177.821503
-20.341423	15.935000	182.184464
-19.341423	15.935000	188.421066
-18.341423	15.935000	185.468811
-17.341423	15.935000	189.565414
-16.341423	15.935000	189.220947
-15.341423	15.935000	264.626984
-14.341423	15.935000	272.073639
-13.341423	15.935000	191.165726
-12.341423	15.935000	255.202667
-11.341423	15.935000	189.207581
-10.341423	15.935000	131.040833
-9.341423	15.935000	1776.378296
-8.341423	15.935000	232.784241
-7.341423	15.935000	179.403473
-6.341423	15.935000	181.790833
-5.341423	15.935000	198.750412
-4.341423	15.935000	135.993149
-3.341423	15.935000	167.991882
-2.341423	15.935000	179.949554
-1.341423	15.935000	187.861710
-0.341423	15.935000	182.569489
0.658577	15.935000	199.272079
1.658577	15.935000	195.474716
2.658577	15.935000	192.078369
3.658577	15.935000	192.203690
4.658577	15.935000	29.343061
5.658577	15.935000	8.873048
6.658577	15.935000	62.350426
7.658577	15.935000	97.691162
8.658577	15.935000	158.556381
9.658577	15.935000	181.365448
10.658577	15.935000	179.081223
11.658577	15.935000	157.081421
12.658577	15.935000	184.650223
13.658577	15.935000	205.405838
14.658577	15.935000	138.851379
15.658577	15.935000	0.639823
16.658577	15.935000	0.639823
17.658577	15.935000	231.436142
18.658577	15.935000	0.714577
19.658577	15.935000	0.639823
20.658577	15.935000	155.705978
21.658577	15.935000	128.215469
22.658577	15.935000	6.956644
23.658577	15.935000	2595.124023
24.658577	15.935000	20.010618
