#XList		#YList		#IList		
-39.341423	-21.065000	2941.708984
-38.341423	-21.065000	2925.609131
-37.341423	-21.065000	2922.605713
-36.341423	-21.065000	2934.433350
-35.341423	-21.065000	2927.660889
-34.341423	-21.065000	2935.289551
-33.341423	-21.065000	2930.611572
-32.341423	-21.065000	2932.539063
-31.341423	-21.065000	2933.124023
-30.341423	-21.065000	2933.008057
-29.341423	-21.065000	2932.926514
-28.341423	-21.065000	2931.648438
-27.341423	-21.065000	2934.632080
-26.341423	-21.065000	2931.528809
-25.341423	-21.065000	2938.406494
-24.341423	-21.065000	2949.727295
-23.341423	-21.065000	2900.000000
-22.341423	-21.065000	2925.746582
-21.341423	-21.065000	2936.621826
-20.341423	-21.065000	2924.914551
-19.341423	-21.065000	2960.470703
-18.341423	-21.065000	2900.096191
-17.341423	-21.065000	2930.178223
-16.341423	-21.065000	2929.073486
-15.341423	-21.065000	2930.147949
-14.341423	-21.065000	2932.976318
-13.341423	-21.065000	2929.834229
-12.341423	-21.065000	2929.788086
-11.341423	-21.065000	2939.396973
-10.341423	-21.065000	3000.000000
-9.341423	-21.065000	2918.284912
-8.341423	-21.065000	2930.291748
-7.341423	-21.065000	2931.798340
-6.341423	-21.065000	2933.292969
-5.341423	-21.065000	2933.740479
-4.341423	-21.065000	2930.718750
-3.341423	-21.065000	2920.126221
-2.341423	-21.065000	2933.876709
-1.341423	-21.065000	2934.062988
-0.341423	-21.065000	2930.793701
0.658577	-21.065000	2931.088135
1.658577	-21.065000	2930.450195
2.658577	-21.065000	2937.041016
3.658577	-21.065000	2932.445068
4.658577	-21.065000	2930.040527
5.658577	-21.065000	2936.340576
6.658577	-21.065000	2918.041260
7.658577	-21.065000	2913.646973
8.658577	-21.065000	2970.505371
9.658577	-21.065000	2954.764893
10.658577	-21.065000	2944.048340
11.658577	-21.065000	2933.748779
12.658577	-21.065000	2933.880859
13.658577	-21.065000	2937.309326
14.658577	-21.065000	2933.309814
15.658577	-21.065000	2936.394287
16.658577	-21.065000	2932.511475
17.658577	-21.065000	2939.073975
18.658577	-21.065000	2934.609619
19.658577	-21.065000	2931.578613
20.658577	-21.065000	2938.120361
21.658577	-21.065000	2927.816895
22.658577	-21.065000	2913.784668
23.658577	-21.065000	2900.000000
24.658577	-21.065000	2925.247559
-39.341423	-20.065000	2939.108643
-38.341423	-20.065000	2935.515381
-37.341423	-20.065000	2933.204346
-36.341423	-20.065000	2947.732666
-35.341423	-20.065000	2933.612305
-34.341423	-20.065000	2934.566895
-33.341423	-20.065000	2933.401123
-32.341423	-20.065000	2930.900879
-31.341423	-20.065000	2930.996338
-30.341423	-20.065000	2936.399170
-29.341423	-20.065000	2934.953369
-28.341423	-20.065000	2936.546875
-27.341423	-20.065000	2931.944824
-26.341423	-20.065000	2935.668701
-25.341423	-20.065000	2933.059570
-24.341423	-20.065000	2935.803711
-23.341423	-20.065000	2928.038086
-22.341423	-20.065000	2941.072998
-21.341423	-20.065000	2933.617676
-20.341423	-20.065000	2934.756104
-19.341423	-20.065000	2938.388428
-18.341423	-20.065000	2936.335449
-17.341423	-20.065000	2933.053955
-16.341423	-20.065000	2929.211182
-15.341423	-20.065000	2930.577393
-14.341423	-20.065000	2929.948486
-13.341423	-20.065000	2931.717529
-12.341423	-20.065000	2931.742676
-11.341423	-20.065000	2924.820313
-10.341423	-20.065000	2929.745605
-9.341423	-20.065000	2934.253174
-8.341423	-20.065000	2933.730469
-7.341423	-20.065000	2937.000000
-6.341423	-20.065000	2935.335938
-5.341423	-20.065000	2938.739502
-4.341423	-20.065000	2937.481689
-3.341423	-20.065000	2936.405029
-2.341423	-20.065000	2931.607178
-1.341423	-20.065000	2939.003662
-0.341423	-20.065000	2932.631836
0.658577	-20.065000	2933.789551
1.658577	-20.065000	2940.900635
2.658577	-20.065000	2939.213379
3.658577	-20.065000	2934.304932
4.658577	-20.065000	2943.155273
5.658577	-20.065000	2944.736572
6.658577	-20.065000	2982.009277
7.658577	-20.065000	2900.000000
8.658577	-20.065000	2941.452881
9.658577	-20.065000	2942.125977
10.658577	-20.065000	2930.161865
11.658577	-20.065000	2935.356689
12.658577	-20.065000	2936.312500
13.658577	-20.065000	2936.628906
14.658577	-20.065000	2932.079834
15.658577	-20.065000	2934.801758
16.658577	-20.065000	2934.127930
17.658577	-20.065000	2934.349854
18.658577	-20.065000	2931.807617
19.658577	-20.065000	2931.109619
20.658577	-20.065000	2930.645752
21.658577	-20.065000	2933.897217
22.658577	-20.065000	2923.511963
23.658577	-20.065000	3000.000000
24.658577	-20.065000	2911.638184
-39.341423	-19.065000	2935.050537
-38.341423	-19.065000	2932.032715
-37.341423	-19.065000	2935.500732
-36.341423	-19.065000	2937.157715
-35.341423	-19.065000	2929.495117
-34.341423	-19.065000	2944.353760
-33.341423	-19.065000	2930.574219
-32.341423	-19.065000	2931.307617
-31.341423	-19.065000	2931.563721
-30.341423	-19.065000	2932.972412
-29.341423	-19.065000	2934.868652
-28.341423	-19.065000	2935.494141
-27.341423	-19.065000	2932.102539
-26.341423	-19.065000	2934.689941
-25.341423	-19.065000	2934.413574
-24.341423	-19.065000	2931.832031
-23.341423	-19.065000	2931.908691
-22.341423	-19.065000	2933.384277
-21.341423	-19.065000	2934.093506
-20.341423	-19.065000	2935.185547
-19.341423	-19.065000	2931.602539
-18.341423	-19.065000	2933.020996
-17.341423	-19.065000	2931.595703
-16.341423	-19.065000	2929.181396
-15.341423	-19.065000	2930.196045
-14.341423	-19.065000	2934.016846
-13.341423	-19.065000	2932.203125
-12.341423	-19.065000	2933.821289
-11.341423	-19.065000	2934.286377
-10.341423	-19.065000	2932.910645
-9.341423	-19.065000	2931.950439
-8.341423	-19.065000	2935.509033
-7.341423	-19.065000	2932.335449
-6.341423	-19.065000	2934.408691
-5.341423	-19.065000	2935.813721
-4.341423	-19.065000	2932.059570
-3.341423	-19.065000	2934.425293
-2.341423	-19.065000	2934.953857
-1.341423	-19.065000	2936.380859
-0.341423	-19.065000	2934.842529
0.658577	-19.065000	2942.537842
1.658577	-19.065000	2937.404785
2.658577	-19.065000	2934.197021
3.658577	-19.065000	2934.504395
4.658577	-19.065000	2936.091309
5.658577	-19.065000	2913.992676
6.658577	-19.065000	2900.000000
7.658577	-19.065000	2915.432617
8.658577	-19.065000	2938.183105
9.658577	-19.065000	2938.920654
10.658577	-19.065000	2940.867920
11.658577	-19.065000	2932.762451
12.658577	-19.065000	2932.083496
13.658577	-19.065000	2932.392090
14.658577	-19.065000	2936.234131
15.658577	-19.065000	2938.461182
16.658577	-19.065000	2932.760986
17.658577	-19.065000	2943.739502
18.658577	-19.065000	2935.459961
19.658577	-19.065000	2935.759521
20.658577	-19.065000	2936.792480
21.658577	-19.065000	2932.490723
22.658577	-19.065000	2945.500000
23.658577	-19.065000	2900.000000
24.658577	-19.065000	2927.715820
-39.341423	-18.065000	2932.163574
-38.341423	-18.065000	2934.033447
-37.341423	-18.065000	2934.072510
-36.341423	-18.065000	2932.579590
-35.341423	-18.065000	2931.885498
-34.341423	-18.065000	2902.115967
-33.341423	-18.065000	2931.339355
-32.341423	-18.065000	2932.658447
-31.341423	-18.065000	2931.101318
-30.341423	-18.065000	2930.272705
-29.341423	-18.065000	2930.435059
-28.341423	-18.065000	2934.708740
-27.341423	-18.065000	2935.070313
-26.341423	-18.065000	2933.023193
-25.341423	-18.065000	2934.537354
-24.341423	-18.065000	2933.932129
-23.341423	-18.065000	2934.490234
-22.341423	-18.065000	2935.212158
-21.341423	-18.065000	2935.189941
-20.341423	-18.065000	2935.550293
-19.341423	-18.065000	2934.177002
-18.341423	-18.065000	2932.777588
-17.341423	-18.065000	2931.263916
-16.341423	-18.065000	2930.006348
-15.341423	-18.065000	2929.927490
-14.341423	-18.065000	2930.981445
-13.341423	-18.065000	2931.668701
-12.341423	-18.065000	2930.028809
-11.341423	-18.065000	2934.350098
-10.341423	-18.065000	2932.376465
-9.341423	-18.065000	2932.770264
-8.341423	-18.065000	2930.378174
-7.341423	-18.065000	2930.848633
-6.341423	-18.065000	2932.350830
-5.341423	-18.065000	2931.769531
-4.341423	-18.065000	2930.518311
-3.341423	-18.065000	2933.926270
-2.341423	-18.065000	2933.342285
-1.341423	-18.065000	2934.139404
-0.341423	-18.065000	2937.130371
0.658577	-18.065000	2929.708008
1.658577	-18.065000	2931.738525
2.658577	-18.065000	2934.055664
3.658577	-18.065000	2934.533447
4.658577	-18.065000	2934.619141
5.658577	-18.065000	2938.073730
6.658577	-18.065000	2930.617920
7.658577	-18.065000	2934.516846
8.658577	-18.065000	2935.402588
9.658577	-18.065000	2933.041504
10.658577	-18.065000	2933.725342
11.658577	-18.065000	2933.203613
12.658577	-18.065000	2929.309082
13.658577	-18.065000	2935.472900
14.658577	-18.065000	2931.301270
15.658577	-18.065000	2936.959717
16.658577	-18.065000	2933.218018
17.658577	-18.065000	2935.063232
18.658577	-18.065000	2935.688965
19.658577	-18.065000	2930.315186
20.658577	-18.065000	2933.994141
21.658577	-18.065000	2933.101074
22.658577	-18.065000	2931.910400
23.658577	-18.065000	2933.859863
24.658577	-18.065000	2932.177490
-39.341423	-17.065000	2932.320068
-38.341423	-17.065000	2934.610596
-37.341423	-17.065000	2931.368408
-36.341423	-17.065000	2936.494141
-35.341423	-17.065000	2938.940918
-34.341423	-17.065000	2900.000000
-33.341423	-17.065000	2931.673340
-32.341423	-17.065000	2929.945801
-31.341423	-17.065000	2935.155518
-30.341423	-17.065000	2931.472168
-29.341423	-17.065000	2935.675781
-28.341423	-17.065000	2933.712158
-27.341423	-17.065000	2933.828857
-26.341423	-17.065000	2932.685303
-25.341423	-17.065000	2931.496094
-24.341423	-17.065000	2934.261230
-23.341423	-17.065000	2934.658203
-22.341423	-17.065000	2936.083984
-21.341423	-17.065000	2934.705322
-20.341423	-17.065000	2932.666016
-19.341423	-17.065000	2926.467285
-18.341423	-17.065000	2923.811768
-17.341423	-17.065000	2932.775635
-16.341423	-17.065000	2928.770508
-15.341423	-17.065000	2930.639404
-14.341423	-17.065000	2929.733154
-13.341423	-17.065000	2931.574463
-12.341423	-17.065000	2933.784912
-11.341423	-17.065000	2933.007813
-10.341423	-17.065000	2935.299805
-9.341423	-17.065000	2933.782471
-8.341423	-17.065000	2935.526611
-7.341423	-17.065000	2939.347168
-6.341423	-17.065000	2930.670166
-5.341423	-17.065000	2929.929443
-4.341423	-17.065000	2929.219238
-3.341423	-17.065000	2931.926270
-2.341423	-17.065000	2933.697998
-1.341423	-17.065000	2932.933838
-0.341423	-17.065000	2933.802002
0.658577	-17.065000	2940.723877
1.658577	-17.065000	2932.471924
2.658577	-17.065000	2936.406250
3.658577	-17.065000	2933.751221
4.658577	-17.065000	2935.194336
5.658577	-17.065000	2931.869629
6.658577	-17.065000	2931.278564
7.658577	-17.065000	2931.851807
8.658577	-17.065000	2934.026611
9.658577	-17.065000	2932.147217
10.658577	-17.065000	2932.733887
11.658577	-17.065000	2931.812988
12.658577	-17.065000	2934.056152
13.658577	-17.065000	2932.781250
14.658577	-17.065000	2934.895996
15.658577	-17.065000	2932.114746
16.658577	-17.065000	2931.233154
17.658577	-17.065000	2940.243164
18.658577	-17.065000	2942.819336
19.658577	-17.065000	2936.526123
20.658577	-17.065000	2929.237061
21.658577	-17.065000	2929.332275
22.658577	-17.065000	2932.216553
23.658577	-17.065000	2930.367920
24.658577	-17.065000	2930.911377
-39.341423	-16.065000	2934.445801
-38.341423	-16.065000	2934.091309
-37.341423	-16.065000	2929.228027
-36.341423	-16.065000	2922.737305
-35.341423	-16.065000	2932.577881
-34.341423	-16.065000	2933.176758
-33.341423	-16.065000	2928.944824
-32.341423	-16.065000	2930.863281
-31.341423	-16.065000	2933.386475
-30.341423	-16.065000	2932.146973
-29.341423	-16.065000	2935.142822
-28.341423	-16.065000	2937.758057
-27.341423	-16.065000	2936.778076
-26.341423	-16.065000	2934.121826
-25.341423	-16.065000	2931.800781
-24.341423	-16.065000	2935.580322
-23.341423	-16.065000	2934.511963
-22.341423	-16.065000	2931.767822
-21.341423	-16.065000	2930.036621
-20.341423	-16.065000	2931.809814
-19.341423	-16.065000	2902.242920
-18.341423	-16.065000	2926.263428
-17.341423	-16.065000	2933.836426
-16.341423	-16.065000	2934.694580
-15.341423	-16.065000	2935.446777
-14.341423	-16.065000	2932.069580
-13.341423	-16.065000	2933.522217
-12.341423	-16.065000	2932.148193
-11.341423	-16.065000	2934.981934
-10.341423	-16.065000	2933.329834
-9.341423	-16.065000	2933.521729
-8.341423	-16.065000	2940.860352
-7.341423	-16.065000	2937.734619
-6.341423	-16.065000	2933.440918
-5.341423	-16.065000	2931.607666
-4.341423	-16.065000	2933.789551
-3.341423	-16.065000	2934.061035
-2.341423	-16.065000	2940.140137
-1.341423	-16.065000	2936.400391
-0.341423	-16.065000	2934.510986
0.658577	-16.065000	2934.297363
1.658577	-16.065000	2936.200684
2.658577	-16.065000	2935.953857
3.658577	-16.065000	2930.726807
4.658577	-16.065000	2938.391846
5.658577	-16.065000	2935.923584
6.658577	-16.065000	2932.933350
7.658577	-16.065000	2930.920654
8.658577	-16.065000	2935.016357
9.658577	-16.065000	2933.105225
10.658577	-16.065000	2932.498779
11.658577	-16.065000	2933.887451
12.658577	-16.065000	2932.388672
13.658577	-16.065000	2933.817627
14.658577	-16.065000	2934.663086
15.658577	-16.065000	2932.634766
16.658577	-16.065000	2929.059326
17.658577	-16.065000	2935.699951
18.658577	-16.065000	2933.595947
19.658577	-16.065000	2932.675293
20.658577	-16.065000	2934.425537
21.658577	-16.065000	2934.106201
22.658577	-16.065000	2934.573975
23.658577	-16.065000	2931.018066
24.658577	-16.065000	2930.892822
-39.341423	-15.065000	2934.497803
-38.341423	-15.065000	2923.238525
-37.341423	-15.065000	2928.008057
-36.341423	-15.065000	2932.152588
-35.341423	-15.065000	2936.528320
-34.341423	-15.065000	2931.020752
-33.341423	-15.065000	2935.065918
-32.341423	-15.065000	2936.009033
-31.341423	-15.065000	2931.989990
-30.341423	-15.065000	2931.504150
-29.341423	-15.065000	2935.679932
-28.341423	-15.065000	2934.121094
-27.341423	-15.065000	2932.452148
-26.341423	-15.065000	2934.250977
-25.341423	-15.065000	2935.032471
-24.341423	-15.065000	2933.519043
-23.341423	-15.065000	2934.565918
-22.341423	-15.065000	2936.146973
-21.341423	-15.065000	2935.750244
-20.341423	-15.065000	2938.372559
-19.341423	-15.065000	2913.651123
-18.341423	-15.065000	2929.349854
-17.341423	-15.065000	2932.006836
-16.341423	-15.065000	2928.900635
-15.341423	-15.065000	2929.369385
-14.341423	-15.065000	2935.196045
-13.341423	-15.065000	2931.967529
-12.341423	-15.065000	2931.577393
-11.341423	-15.065000	2934.312744
-10.341423	-15.065000	2935.454102
-9.341423	-15.065000	2938.838623
-8.341423	-15.065000	2937.366699
-7.341423	-15.065000	2936.445801
-6.341423	-15.065000	2935.381592
-5.341423	-15.065000	2937.431885
-4.341423	-15.065000	2939.011230
-3.341423	-15.065000	2938.521729
-2.341423	-15.065000	2938.388184
-1.341423	-15.065000	2929.733154
-0.341423	-15.065000	2935.234863
0.658577	-15.065000	2933.148682
1.658577	-15.065000	2939.968750
2.658577	-15.065000	2938.437012
3.658577	-15.065000	2935.514404
4.658577	-15.065000	2931.885254
5.658577	-15.065000	2940.476074
6.658577	-15.065000	2934.910400
7.658577	-15.065000	2928.312744
8.658577	-15.065000	2935.240723
9.658577	-15.065000	2932.448486
10.658577	-15.065000	2932.776611
11.658577	-15.065000	2931.941406
12.658577	-15.065000	2940.008301
13.658577	-15.065000	2921.873291
14.658577	-15.065000	2935.982178
15.658577	-15.065000	2933.303467
16.658577	-15.065000	2930.672852
17.658577	-15.065000	2934.557129
18.658577	-15.065000	2936.170166
19.658577	-15.065000	2931.891602
20.658577	-15.065000	2933.805908
21.658577	-15.065000	2931.372070
22.658577	-15.065000	2933.675049
23.658577	-15.065000	2932.639893
24.658577	-15.065000	2933.292725
-39.341423	-14.065000	2926.956543
-38.341423	-14.065000	2931.749023
-37.341423	-14.065000	2933.791504
-36.341423	-14.065000	2931.358643
-35.341423	-14.065000	2933.092041
-34.341423	-14.065000	2932.447754
-33.341423	-14.065000	2933.167969
-32.341423	-14.065000	2936.889160
-31.341423	-14.065000	2931.348389
-30.341423	-14.065000	2928.708984
-29.341423	-14.065000	2932.733887
-28.341423	-14.065000	2939.189697
-27.341423	-14.065000	2934.897461
-26.341423	-14.065000	2935.980225
-25.341423	-14.065000	2934.792236
-24.341423	-14.065000	2938.105957
-23.341423	-14.065000	2935.737549
-22.341423	-14.065000	2936.086182
-21.341423	-14.065000	2927.793213
-20.341423	-14.065000	2925.683594
-19.341423	-14.065000	2953.912354
-18.341423	-14.065000	2928.576416
-17.341423	-14.065000	2934.879639
-16.341423	-14.065000	2932.508301
-15.341423	-14.065000	2931.266602
-14.341423	-14.065000	2930.656006
-13.341423	-14.065000	2933.028809
-12.341423	-14.065000	2932.608643
-11.341423	-14.065000	2936.185791
-10.341423	-14.065000	2938.137451
-9.341423	-14.065000	2935.701416
-8.341423	-14.065000	2939.292236
-7.341423	-14.065000	2936.902100
-6.341423	-14.065000	2940.637207
-5.341423	-14.065000	2935.184570
-4.341423	-14.065000	2934.666260
-3.341423	-14.065000	2937.232422
-2.341423	-14.065000	2927.926025
-1.341423	-14.065000	2938.068359
-0.341423	-14.065000	2932.723145
0.658577	-14.065000	2934.583252
1.658577	-14.065000	2936.984131
2.658577	-14.065000	2937.273438
3.658577	-14.065000	2937.919189
4.658577	-14.065000	2939.270996
5.658577	-14.065000	2934.234863
6.658577	-14.065000	2933.720703
7.658577	-14.065000	2933.980469
8.658577	-14.065000	2931.172852
9.658577	-14.065000	2932.479004
10.658577	-14.065000	2930.185791
11.658577	-14.065000	2927.686035
12.658577	-14.065000	2934.775879
13.658577	-14.065000	2934.334229
14.658577	-14.065000	2937.860840
15.658577	-14.065000	2955.474854
16.658577	-14.065000	2939.617188
17.658577	-14.065000	2932.618896
18.658577	-14.065000	2933.119385
19.658577	-14.065000	2933.942627
20.658577	-14.065000	2937.073975
21.658577	-14.065000	2934.232910
22.658577	-14.065000	2935.150391
23.658577	-14.065000	2933.685303
24.658577	-14.065000	2937.799316
-39.341423	-13.065000	2929.310547
-38.341423	-13.065000	2932.037109
-37.341423	-13.065000	2930.800049
-36.341423	-13.065000	2934.727539
-35.341423	-13.065000	2935.934326
-34.341423	-13.065000	2937.937256
-33.341423	-13.065000	2936.849365
-32.341423	-13.065000	2930.438477
-31.341423	-13.065000	2930.390869
-30.341423	-13.065000	2932.095215
-29.341423	-13.065000	2934.245361
-28.341423	-13.065000	2933.842529
-27.341423	-13.065000	2935.527344
-26.341423	-13.065000	2932.015625
-25.341423	-13.065000	2935.638916
-24.341423	-13.065000	2933.379150
-23.341423	-13.065000	2932.571045
-22.341423	-13.065000	2934.244141
-21.341423	-13.065000	2934.724854
-20.341423	-13.065000	2934.211670
-19.341423	-13.065000	2936.237549
-18.341423	-13.065000	2937.243896
-17.341423	-13.065000	2933.339600
-16.341423	-13.065000	2931.381592
-15.341423	-13.065000	2933.271240
-14.341423	-13.065000	2934.162842
-13.341423	-13.065000	2933.462646
-12.341423	-13.065000	2938.011475
-11.341423	-13.065000	2933.520020
-10.341423	-13.065000	2940.149658
-9.341423	-13.065000	2940.046631
-8.341423	-13.065000	2932.354736
-7.341423	-13.065000	2935.536865
-6.341423	-13.065000	2940.416748
-5.341423	-13.065000	2934.107178
-4.341423	-13.065000	2935.044189
-3.341423	-13.065000	2936.194580
-2.341423	-13.065000	2930.272217
-1.341423	-13.065000	2934.717041
-0.341423	-13.065000	2935.584717
0.658577	-13.065000	2936.111084
1.658577	-13.065000	2932.683594
2.658577	-13.065000	2936.686768
3.658577	-13.065000	2936.598877
4.658577	-13.065000	2940.255371
5.658577	-13.065000	2941.244141
6.658577	-13.065000	2933.930908
7.658577	-13.065000	2929.997070
8.658577	-13.065000	2931.097656
9.658577	-13.065000	2929.918945
10.658577	-13.065000	2943.239258
11.658577	-13.065000	2903.051025
12.658577	-13.065000	2949.245361
13.658577	-13.065000	2935.082031
14.658577	-13.065000	2936.835938
15.658577	-13.065000	2930.990967
16.658577	-13.065000	2936.130127
17.658577	-13.065000	2930.414307
18.658577	-13.065000	2931.384766
19.658577	-13.065000	2933.908447
20.658577	-13.065000	2934.083740
21.658577	-13.065000	2932.235107
22.658577	-13.065000	2935.943115
23.658577	-13.065000	2935.403320
24.658577	-13.065000	2937.152344
-39.341423	-12.065000	2928.931641
-38.341423	-12.065000	2935.289063
-37.341423	-12.065000	2929.944092
-36.341423	-12.065000	2937.239502
-35.341423	-12.065000	2936.233887
-34.341423	-12.065000	2930.197754
-33.341423	-12.065000	2932.571777
-32.341423	-12.065000	2933.250000
-31.341423	-12.065000	2929.517578
-30.341423	-12.065000	2931.445068
-29.341423	-12.065000	2929.095947
-28.341423	-12.065000	2929.150635
-27.341423	-12.065000	2932.205078
-26.341423	-12.065000	2936.227051
-25.341423	-12.065000	2934.723389
-24.341423	-12.065000	2933.875977
-23.341423	-12.065000	2933.558838
-22.341423	-12.065000	2935.759277
-21.341423	-12.065000	2930.007080
-20.341423	-12.065000	2940.742676
-19.341423	-12.065000	2932.632813
-18.341423	-12.065000	2939.645264
-17.341423	-12.065000	2932.600830
-16.341423	-12.065000	2931.558838
-15.341423	-12.065000	2941.560791
-14.341423	-12.065000	2929.973389
-13.341423	-12.065000	2940.971680
-12.341423	-12.065000	2935.253418
-11.341423	-12.065000	2936.205566
-10.341423	-12.065000	2937.347900
-9.341423	-12.065000	2933.860107
-8.341423	-12.065000	2937.020020
-7.341423	-12.065000	2938.447510
-6.341423	-12.065000	2932.145264
-5.341423	-12.065000	2937.191162
-4.341423	-12.065000	2940.687500
-3.341423	-12.065000	2932.531494
-2.341423	-12.065000	2933.627930
-1.341423	-12.065000	2931.680908
-0.341423	-12.065000	2934.114014
0.658577	-12.065000	2929.440918
1.658577	-12.065000	2937.791016
2.658577	-12.065000	2930.696777
3.658577	-12.065000	2944.746338
4.658577	-12.065000	2942.828369
5.658577	-12.065000	2939.961670
6.658577	-12.065000	2935.551514
7.658577	-12.065000	2933.301514
8.658577	-12.065000	2931.057861
9.658577	-12.065000	2919.252930
10.658577	-12.065000	2905.578125
11.658577	-12.065000	2921.583252
12.658577	-12.065000	2934.710449
13.658577	-12.065000	2946.161865
14.658577	-12.065000	2938.639893
15.658577	-12.065000	2934.116455
16.658577	-12.065000	2936.688965
17.658577	-12.065000	2933.513672
18.658577	-12.065000	2931.081543
19.658577	-12.065000	2934.104492
20.658577	-12.065000	2934.650146
21.658577	-12.065000	2935.710205
22.658577	-12.065000	2934.690430
23.658577	-12.065000	2935.105469
24.658577	-12.065000	2934.773193
-39.341423	-11.065000	2935.816162
-38.341423	-11.065000	2937.289063
-37.341423	-11.065000	2931.790771
-36.341423	-11.065000	2929.822510
-35.341423	-11.065000	2929.492676
-34.341423	-11.065000	2930.794189
-33.341423	-11.065000	2932.341797
-32.341423	-11.065000	2931.584961
-31.341423	-11.065000	2931.656738
-30.341423	-11.065000	2935.918945
-29.341423	-11.065000	2931.338379
-28.341423	-11.065000	2932.959473
-27.341423	-11.065000	2931.330322
-26.341423	-11.065000	2933.686035
-25.341423	-11.065000	2930.977051
-24.341423	-11.065000	2933.013672
-23.341423	-11.065000	2933.135742
-22.341423	-11.065000	2933.190186
-21.341423	-11.065000	2937.470215
-20.341423	-11.065000	2937.693848
-19.341423	-11.065000	2934.950684
-18.341423	-11.065000	2941.432373
-17.341423	-11.065000	2933.745850
-16.341423	-11.065000	2931.062500
-15.341423	-11.065000	2937.716797
-14.341423	-11.065000	2933.097900
-13.341423	-11.065000	2939.376953
-12.341423	-11.065000	2936.494141
-11.341423	-11.065000	2934.425537
-10.341423	-11.065000	2938.494385
-9.341423	-11.065000	2939.853271
-8.341423	-11.065000	2937.513184
-7.341423	-11.065000	2932.085693
-6.341423	-11.065000	2934.596924
-5.341423	-11.065000	2939.101318
-4.341423	-11.065000	2939.160889
-3.341423	-11.065000	2936.188232
-2.341423	-11.065000	2931.157715
-1.341423	-11.065000	2933.663330
-0.341423	-11.065000	2935.046387
0.658577	-11.065000	2935.865723
1.658577	-11.065000	2933.172363
2.658577	-11.065000	2933.761963
3.658577	-11.065000	2943.822266
4.658577	-11.065000	2941.447021
5.658577	-11.065000	2938.028564
6.658577	-11.065000	2937.901611
7.658577	-11.065000	2932.861572
8.658577	-11.065000	2935.383057
9.658577	-11.065000	2942.622803
10.658577	-11.065000	2957.004150
11.658577	-11.065000	2916.824951
12.658577	-11.065000	2946.810791
13.658577	-11.065000	2935.729492
14.658577	-11.065000	2930.985840
15.658577	-11.065000	2931.595947
16.658577	-11.065000	2933.467041
17.658577	-11.065000	2938.244385
18.658577	-11.065000	2933.844238
19.658577	-11.065000	2937.219482
20.658577	-11.065000	2937.439209
21.658577	-11.065000	2938.292480
22.658577	-11.065000	2947.281006
23.658577	-11.065000	2934.048096
24.658577	-11.065000	2932.675293
-39.341423	-10.065000	2936.381104
-38.341423	-10.065000	2931.543457
-37.341423	-10.065000	2938.770752
-36.341423	-10.065000	2933.091797
-35.341423	-10.065000	2935.095459
-34.341423	-10.065000	2931.443115
-33.341423	-10.065000	2932.192627
-32.341423	-10.065000	2935.792236
-31.341423	-10.065000	2930.656982
-30.341423	-10.065000	2936.967041
-29.341423	-10.065000	2933.255859
-28.341423	-10.065000	2940.011719
-27.341423	-10.065000	2936.784912
-26.341423	-10.065000	2933.145264
-25.341423	-10.065000	2930.686768
-24.341423	-10.065000	2935.512939
-23.341423	-10.065000	2932.707031
-22.341423	-10.065000	2923.567627
-21.341423	-10.065000	2932.910645
-20.341423	-10.065000	2933.912842
-19.341423	-10.065000	2934.882080
-18.341423	-10.065000	2933.874756
-17.341423	-10.065000	2931.763672
-16.341423	-10.065000	2930.820557
-15.341423	-10.065000	2933.139160
-14.341423	-10.065000	2934.392090
-13.341423	-10.065000	2934.761719
-12.341423	-10.065000	2934.933594
-11.341423	-10.065000	2935.342773
-10.341423	-10.065000	2932.130859
-9.341423	-10.065000	2910.196533
-8.341423	-10.065000	2938.255615
-7.341423	-10.065000	2934.060547
-6.341423	-10.065000	2947.345947
-5.341423	-10.065000	2942.869629
-4.341423	-10.065000	2930.879395
-3.341423	-10.065000	2938.697998
-2.341423	-10.065000	2935.668945
-1.341423	-10.065000	2936.340332
-0.341423	-10.065000	2939.331055
0.658577	-10.065000	2932.736328
1.658577	-10.065000	2936.098389
2.658577	-10.065000	2936.294434
3.658577	-10.065000	2949.128662
4.658577	-10.065000	2941.434814
5.658577	-10.065000	2942.148438
6.658577	-10.065000	2932.140869
7.658577	-10.065000	2931.652100
8.658577	-10.065000	2940.749268
9.658577	-10.065000	2901.687744
10.658577	-10.065000	3000.000000
11.658577	-10.065000	2959.757813
12.658577	-10.065000	2938.633545
13.658577	-10.065000	2936.631104
14.658577	-10.065000	2939.188965
15.658577	-10.065000	2936.281738
16.658577	-10.065000	2933.260498
17.658577	-10.065000	2938.973389
18.658577	-10.065000	2940.945313
19.658577	-10.065000	2939.148926
20.658577	-10.065000	2938.836670
21.658577	-10.065000	2945.341309
22.658577	-10.065000	2940.636963
23.658577	-10.065000	2935.924072
24.658577	-10.065000	2934.278809
-39.341423	-9.065000	2936.650146
-38.341423	-9.065000	2930.899902
-37.341423	-9.065000	2932.275146
-36.341423	-9.065000	2933.382080
-35.341423	-9.065000	2930.771484
-34.341423	-9.065000	2936.732422
-33.341423	-9.065000	2935.975342
-32.341423	-9.065000	2931.979248
-31.341423	-9.065000	2930.564941
-30.341423	-9.065000	2929.117188
-29.341423	-9.065000	2932.703613
-28.341423	-9.065000	2929.379150
-27.341423	-9.065000	2930.958008
-26.341423	-9.065000	2932.379883
-25.341423	-9.065000	2929.764404
-24.341423	-9.065000	2924.422363
-23.341423	-9.065000	2941.179932
-22.341423	-9.065000	2913.140381
-21.341423	-9.065000	2941.813965
-20.341423	-9.065000	2919.720215
-19.341423	-9.065000	2941.807861
-18.341423	-9.065000	2933.639404
-17.341423	-9.065000	2934.133301
-16.341423	-9.065000	2934.479736
-15.341423	-9.065000	2932.491455
-14.341423	-9.065000	2934.221191
-13.341423	-9.065000	2933.859863
-12.341423	-9.065000	2932.756104
-11.341423	-9.065000	2932.618652
-10.341423	-9.065000	2937.047607
-9.341423	-9.065000	2933.316162
-8.341423	-9.065000	2932.622803
-7.341423	-9.065000	2937.420898
-6.341423	-9.065000	2933.571777
-5.341423	-9.065000	2925.518799
-4.341423	-9.065000	2932.006836
-3.341423	-9.065000	2944.477295
-2.341423	-9.065000	2945.152588
-1.341423	-9.065000	2940.661865
-0.341423	-9.065000	2934.373779
0.658577	-9.065000	2933.278076
1.658577	-9.065000	2934.083496
2.658577	-9.065000	2943.518311
3.658577	-9.065000	2946.087402
4.658577	-9.065000	2932.618896
5.658577	-9.065000	2934.346191
6.658577	-9.065000	2934.814697
7.658577	-9.065000	2933.045898
8.658577	-9.065000	2947.997070
9.658577	-9.065000	2977.161865
10.658577	-9.065000	2919.041016
11.658577	-9.065000	2909.154785
12.658577	-9.065000	2936.270752
13.658577	-9.065000	2931.087891
14.658577	-9.065000	2940.570068
15.658577	-9.065000	2936.115723
16.658577	-9.065000	2933.373779
17.658577	-9.065000	2936.248779
18.658577	-9.065000	2935.093994
19.658577	-9.065000	2933.289551
20.658577	-9.065000	2928.793457
21.658577	-9.065000	2942.536621
22.658577	-9.065000	2934.170410
23.658577	-9.065000	2935.684570
24.658577	-9.065000	2940.908936
-39.341423	-8.065000	2930.468262
-38.341423	-8.065000	2932.826660
-37.341423	-8.065000	2932.582275
-36.341423	-8.065000	2934.516602
-35.341423	-8.065000	2936.027832
-34.341423	-8.065000	2929.812012
-33.341423	-8.065000	2934.919434
-32.341423	-8.065000	2935.161133
-31.341423	-8.065000	2928.455811
-30.341423	-8.065000	2932.383545
-29.341423	-8.065000	2929.853516
-28.341423	-8.065000	2932.776367
-27.341423	-8.065000	2931.418945
-26.341423	-8.065000	2935.033691
-25.341423	-8.065000	2932.545654
-24.341423	-8.065000	2934.964600
-23.341423	-8.065000	2936.613281
-22.341423	-8.065000	2949.970947
-21.341423	-8.065000	2949.883545
-20.341423	-8.065000	2938.223877
-19.341423	-8.065000	2935.139648
-18.341423	-8.065000	2939.087158
-17.341423	-8.065000	2932.019043
-16.341423	-8.065000	2931.385254
-15.341423	-8.065000	2932.803223
-14.341423	-8.065000	2931.743408
-13.341423	-8.065000	2933.961182
-12.341423	-8.065000	2933.336182
-11.341423	-8.065000	2930.374756
-10.341423	-8.065000	2936.392090
-9.341423	-8.065000	2932.926270
-8.341423	-8.065000	2933.924561
-7.341423	-8.065000	2955.960693
-6.341423	-8.065000	2948.267090
-5.341423	-8.065000	2949.936279
-4.341423	-8.065000	2945.252441
-3.341423	-8.065000	2933.148438
-2.341423	-8.065000	2935.111572
-1.341423	-8.065000	2939.161377
-0.341423	-8.065000	2935.647217
0.658577	-8.065000	2929.192627
1.658577	-8.065000	2919.303955
2.658577	-8.065000	2938.072266
3.658577	-8.065000	2931.712646
4.658577	-8.065000	2937.139893
5.658577	-8.065000	2932.113770
6.658577	-8.065000	2934.951416
7.658577	-8.065000	2930.700439
8.658577	-8.065000	2900.000000
9.658577	-8.065000	2999.354004
10.658577	-8.065000	2900.000000
11.658577	-8.065000	3000.000000
12.658577	-8.065000	2942.463379
13.658577	-8.065000	2935.952148
14.658577	-8.065000	2936.808838
15.658577	-8.065000	2936.479736
16.658577	-8.065000	2934.321289
17.658577	-8.065000	2933.839600
18.658577	-8.065000	2935.268311
19.658577	-8.065000	2940.503906
20.658577	-8.065000	2938.283447
21.658577	-8.065000	2939.916992
22.658577	-8.065000	2938.604248
23.658577	-8.065000	2930.647461
24.658577	-8.065000	2936.599121
-39.341423	-7.065000	2932.520752
-38.341423	-7.065000	2935.172119
-37.341423	-7.065000	2931.444824
-36.341423	-7.065000	2930.984375
-35.341423	-7.065000	2931.929688
-34.341423	-7.065000	2930.117676
-33.341423	-7.065000	2930.304932
-32.341423	-7.065000	2930.908203
-31.341423	-7.065000	2933.195557
-30.341423	-7.065000	2930.508301
-29.341423	-7.065000	2932.485840
-28.341423	-7.065000	2932.581299
-27.341423	-7.065000	2931.954590
-26.341423	-7.065000	2932.008301
-25.341423	-7.065000	2932.471680
-24.341423	-7.065000	2936.471436
-23.341423	-7.065000	2932.414063
-22.341423	-7.065000	2932.470215
-21.341423	-7.065000	2948.270508
-20.341423	-7.065000	2941.404785
-19.341423	-7.065000	2931.223145
-18.341423	-7.065000	2938.401123
-17.341423	-7.065000	2931.963379
-16.341423	-7.065000	2932.959961
-15.341423	-7.065000	2933.124023
-14.341423	-7.065000	2931.025391
-13.341423	-7.065000	2934.485840
-12.341423	-7.065000	2933.943604
-11.341423	-7.065000	2935.099854
-10.341423	-7.065000	2933.626953
-9.341423	-7.065000	2931.000977
-8.341423	-7.065000	2933.397705
-7.341423	-7.065000	2936.046143
-6.341423	-7.065000	2949.548096
-5.341423	-7.065000	2901.285645
-4.341423	-7.065000	2916.580322
-3.341423	-7.065000	2935.963867
-2.341423	-7.065000	2932.907227
-1.341423	-7.065000	2949.676514
-0.341423	-7.065000	2930.735596
0.658577	-7.065000	2928.003418
1.658577	-7.065000	2900.000000
2.658577	-7.065000	2933.094482
3.658577	-7.065000	2935.351807
4.658577	-7.065000	2934.716064
5.658577	-7.065000	2933.158936
6.658577	-7.065000	2934.624756
7.658577	-7.065000	2929.497559
8.658577	-7.065000	2929.119141
9.658577	-7.065000	2934.625244
10.658577	-7.065000	2930.116699
11.658577	-7.065000	2942.473389
12.658577	-7.065000	2933.636475
13.658577	-7.065000	2932.208252
14.658577	-7.065000	2933.876465
15.658577	-7.065000	2935.118652
16.658577	-7.065000	2934.784912
17.658577	-7.065000	2940.139160
18.658577	-7.065000	2934.811279
19.658577	-7.065000	2937.935791
20.658577	-7.065000	2935.635986
21.658577	-7.065000	2935.510254
22.658577	-7.065000	2932.972168
23.658577	-7.065000	2933.916016
24.658577	-7.065000	2928.347900
-39.341423	-6.065000	2931.077637
-38.341423	-6.065000	2931.081543
-37.341423	-6.065000	2936.772217
-36.341423	-6.065000	2931.360596
-35.341423	-6.065000	2932.591309
-34.341423	-6.065000	2934.203857
-33.341423	-6.065000	2931.932861
-32.341423	-6.065000	2930.593506
-31.341423	-6.065000	2930.557373
-30.341423	-6.065000	2930.468506
-29.341423	-6.065000	2933.162598
-28.341423	-6.065000	2932.891846
-27.341423	-6.065000	2930.603760
-26.341423	-6.065000	2931.288574
-25.341423	-6.065000	2934.258301
-24.341423	-6.065000	2935.601318
-23.341423	-6.065000	2933.467773
-22.341423	-6.065000	2931.882568
-21.341423	-6.065000	2933.509766
-20.341423	-6.065000	2933.291992
-19.341423	-6.065000	2933.141602
-18.341423	-6.065000	2943.795166
-17.341423	-6.065000	2931.706055
-16.341423	-6.065000	2931.803467
-15.341423	-6.065000	2932.138428
-14.341423	-6.065000	2930.253174
-13.341423	-6.065000	2930.465088
-12.341423	-6.065000	2939.390625
-11.341423	-6.065000	2938.635742
-10.341423	-6.065000	2931.105225
-9.341423	-6.065000	2931.814941
-8.341423	-6.065000	2932.271729
-7.341423	-6.065000	2933.146973
-6.341423	-6.065000	2931.993164
-5.341423	-6.065000	2935.372314
-4.341423	-6.065000	2906.290771
-3.341423	-6.065000	2932.087646
-2.341423	-6.065000	2931.225098
-1.341423	-6.065000	2923.317383
-0.341423	-6.065000	2930.402100
0.658577	-6.065000	2908.212158
1.658577	-6.065000	2916.852051
2.658577	-6.065000	2932.182129
3.658577	-6.065000	2937.071045
4.658577	-6.065000	2934.319092
5.658577	-6.065000	2933.965576
6.658577	-6.065000	2930.831543
7.658577	-6.065000	2932.615723
8.658577	-6.065000	2900.000000
9.658577	-6.065000	2946.791260
10.658577	-6.065000	2935.397461
11.658577	-6.065000	2932.993652
12.658577	-6.065000	2933.157959
13.658577	-6.065000	2933.300537
14.658577	-6.065000	2933.986816
15.658577	-6.065000	2933.148926
16.658577	-6.065000	2934.847656
17.658577	-6.065000	2936.565186
18.658577	-6.065000	2936.389648
19.658577	-6.065000	2935.146729
20.658577	-6.065000	2942.536865
21.658577	-6.065000	2933.890381
22.658577	-6.065000	2939.627441
23.658577	-6.065000	2934.699219
24.658577	-6.065000	2934.413330
-39.341423	-5.065000	2933.344482
-38.341423	-5.065000	2931.722168
-37.341423	-5.065000	2937.937256
-36.341423	-5.065000	2933.965820
-35.341423	-5.065000	2932.020508
-34.341423	-5.065000	2936.860107
-33.341423	-5.065000	2935.932373
-32.341423	-5.065000	2928.760010
-31.341423	-5.065000	2933.480225
-30.341423	-5.065000	2934.742676
-29.341423	-5.065000	2931.680908
-28.341423	-5.065000	2932.725342
-27.341423	-5.065000	2931.359375
-26.341423	-5.065000	2932.703857
-25.341423	-5.065000	2933.318359
-24.341423	-5.065000	2932.264160
-23.341423	-5.065000	2930.038330
-22.341423	-5.065000	2933.229004
-21.341423	-5.065000	2933.516602
-20.341423	-5.065000	2936.849854
-19.341423	-5.065000	2910.000488
-18.341423	-5.065000	2937.690674
-17.341423	-5.065000	2917.406494
-16.341423	-5.065000	2933.440186
-15.341423	-5.065000	2932.715332
-14.341423	-5.065000	2932.351074
-13.341423	-5.065000	2932.023438
-12.341423	-5.065000	2928.547607
-11.341423	-5.065000	2936.384033
-10.341423	-5.065000	2930.188965
-9.341423	-5.065000	2933.619629
-8.341423	-5.065000	2930.795410
-7.341423	-5.065000	2931.151855
-6.341423	-5.065000	2932.943848
-5.341423	-5.065000	2930.594238
-4.341423	-5.065000	2936.812012
-3.341423	-5.065000	2999.723389
-2.341423	-5.065000	2940.044189
-1.341423	-5.065000	2939.259277
-0.341423	-5.065000	2932.824951
0.658577	-5.065000	2935.734375
1.658577	-5.065000	2939.135498
2.658577	-5.065000	2946.687500
3.658577	-5.065000	2925.983887
4.658577	-5.065000	2931.566406
5.658577	-5.065000	2932.370850
6.658577	-5.065000	2935.308105
7.658577	-5.065000	2932.406250
8.658577	-5.065000	2930.419922
9.658577	-5.065000	2931.082520
10.658577	-5.065000	2935.819336
11.658577	-5.065000	2934.692871
12.658577	-5.065000	2935.073730
13.658577	-5.065000	2935.234863
14.658577	-5.065000	2934.071289
15.658577	-5.065000	2932.532959
16.658577	-5.065000	2932.836670
17.658577	-5.065000	2932.790771
18.658577	-5.065000	2933.251465
19.658577	-5.065000	2936.432373
20.658577	-5.065000	2936.973145
21.658577	-5.065000	2940.391357
22.658577	-5.065000	2933.573730
23.658577	-5.065000	2935.072510
24.658577	-5.065000	2930.887939
-39.341423	-4.065000	2921.790039
-38.341423	-4.065000	2937.747559
-37.341423	-4.065000	2934.859131
-36.341423	-4.065000	2932.371338
-35.341423	-4.065000	2933.227295
-34.341423	-4.065000	2936.243164
-33.341423	-4.065000	2935.796143
-32.341423	-4.065000	2931.959473
-31.341423	-4.065000	2932.084229
-30.341423	-4.065000	2931.125244
-29.341423	-4.065000	2933.252441
-28.341423	-4.065000	2929.111328
-27.341423	-4.065000	2933.331787
-26.341423	-4.065000	2930.429443
-25.341423	-4.065000	2932.441406
-24.341423	-4.065000	2932.520996
-23.341423	-4.065000	2930.464844
-22.341423	-4.065000	2933.971436
-21.341423	-4.065000	2934.447510
-20.341423	-4.065000	2932.566895
-19.341423	-4.065000	2937.905029
-18.341423	-4.065000	2923.390137
-17.341423	-4.065000	2920.952393
-16.341423	-4.065000	2929.276855
-15.341423	-4.065000	2932.129883
-14.341423	-4.065000	2931.973145
-13.341423	-4.065000	2934.579346
-12.341423	-4.065000	2933.252197
-11.341423	-4.065000	2929.745605
-10.341423	-4.065000	2933.996826
-9.341423	-4.065000	2934.659668
-8.341423	-4.065000	2942.738281
-7.341423	-4.065000	2933.884033
-6.341423	-4.065000	2936.701660
-5.341423	-4.065000	2931.763428
-4.341423	-4.065000	2916.490967
-3.341423	-4.065000	2927.874756
-2.341423	-4.065000	2932.015381
-1.341423	-4.065000	2934.527832
-0.341423	-4.065000	2931.698730
0.658577	-4.065000	2933.086914
1.658577	-4.065000	2939.428467
2.658577	-4.065000	2900.000000
3.658577	-4.065000	2926.982422
4.658577	-4.065000	2936.731689
5.658577	-4.065000	2934.195068
6.658577	-4.065000	2928.949463
7.658577	-4.065000	2931.439697
8.658577	-4.065000	2932.186523
9.658577	-4.065000	2931.121338
10.658577	-4.065000	2934.164551
11.658577	-4.065000	2938.021240
12.658577	-4.065000	2930.982910
13.658577	-4.065000	2931.319336
14.658577	-4.065000	2930.577148
15.658577	-4.065000	2933.140625
16.658577	-4.065000	2933.733887
17.658577	-4.065000	2932.051758
18.658577	-4.065000	2934.500244
19.658577	-4.065000	2933.744629
20.658577	-4.065000	2933.637451
21.658577	-4.065000	2930.658203
22.658577	-4.065000	2933.699219
23.658577	-4.065000	2936.254395
24.658577	-4.065000	2933.443115
-39.341423	-3.065000	2955.021484
-38.341423	-3.065000	2938.602051
-37.341423	-3.065000	2934.075195
-36.341423	-3.065000	2935.171631
-35.341423	-3.065000	2932.923096
-34.341423	-3.065000	2932.530273
-33.341423	-3.065000	2932.438232
-32.341423	-3.065000	2930.326416
-31.341423	-3.065000	2928.427979
-30.341423	-3.065000	2934.815918
-29.341423	-3.065000	2929.662354
-28.341423	-3.065000	2951.708740
-27.341423	-3.065000	2930.870850
-26.341423	-3.065000	2934.337402
-25.341423	-3.065000	2930.407227
-24.341423	-3.065000	2930.804932
-23.341423	-3.065000	2933.755615
-22.341423	-3.065000	2932.200684
-21.341423	-3.065000	2931.059326
-20.341423	-3.065000	2934.093750
-19.341423	-3.065000	2933.016113
-18.341423	-3.065000	2936.313721
-17.341423	-3.065000	2931.975586
-16.341423	-3.065000	2938.122559
-15.341423	-3.065000	2935.142822
-14.341423	-3.065000	2931.375488
-13.341423	-3.065000	2932.531982
-12.341423	-3.065000	2932.342041
-11.341423	-3.065000	2932.899658
-10.341423	-3.065000	2932.312744
-9.341423	-3.065000	2932.127441
-8.341423	-3.065000	2933.452637
-7.341423	-3.065000	2938.341797
-6.341423	-3.065000	2937.489746
-5.341423	-3.065000	2936.212402
-4.341423	-3.065000	2935.629395
-3.341423	-3.065000	2927.794434
-2.341423	-3.065000	2932.525879
-1.341423	-3.065000	2930.443359
-0.341423	-3.065000	2933.902100
0.658577	-3.065000	2932.467773
1.658577	-3.065000	2935.766113
2.658577	-3.065000	2936.353760
3.658577	-3.065000	2933.183838
4.658577	-3.065000	2909.963135
5.658577	-3.065000	2933.465088
6.658577	-3.065000	2934.247803
7.658577	-3.065000	2931.520508
8.658577	-3.065000	2932.488770
9.658577	-3.065000	2931.333984
10.658577	-3.065000	2933.850098
11.658577	-3.065000	2937.042969
12.658577	-3.065000	2934.173340
13.658577	-3.065000	2934.481445
14.658577	-3.065000	2930.000000
15.658577	-3.065000	2935.491699
16.658577	-3.065000	2934.022705
17.658577	-3.065000	2933.311279
18.658577	-3.065000	2934.299316
19.658577	-3.065000	2933.956787
20.658577	-3.065000	2933.056396
21.658577	-3.065000	2930.505127
22.658577	-3.065000	2932.146240
23.658577	-3.065000	2940.823975
24.658577	-3.065000	2935.495117
-39.341423	-2.065000	2956.590576
-38.341423	-2.065000	2932.815430
-37.341423	-2.065000	2936.484131
-36.341423	-2.065000	2939.336670
-35.341423	-2.065000	2929.281494
-34.341423	-2.065000	2933.930664
-33.341423	-2.065000	2937.411621
-32.341423	-2.065000	2918.789551
-31.341423	-2.065000	2936.148682
-30.341423	-2.065000	2929.687500
-29.341423	-2.065000	2907.870361
-28.341423	-2.065000	2978.402588
-27.341423	-2.065000	2931.916504
-26.341423	-2.065000	2932.572754
-25.341423	-2.065000	2936.661133
-24.341423	-2.065000	2934.534912
-23.341423	-2.065000	2935.866943
-22.341423	-2.065000	2933.214111
-21.341423	-2.065000	2931.508545
-20.341423	-2.065000	2936.118408
-19.341423	-2.065000	2934.350830
-18.341423	-2.065000	2937.303955
-17.341423	-2.065000	2931.351563
-16.341423	-2.065000	2934.433350
-15.341423	-2.065000	2931.395996
-14.341423	-2.065000	2933.360840
-13.341423	-2.065000	2932.377930
-12.341423	-2.065000	2932.360107
-11.341423	-2.065000	2934.156982
-10.341423	-2.065000	2933.292480
-9.341423	-2.065000	2930.768555
-8.341423	-2.065000	2930.408203
-7.341423	-2.065000	2937.979980
-6.341423	-2.065000	2936.041504
-5.341423	-2.065000	2934.258545
-4.341423	-2.065000	2937.174805
-3.341423	-2.065000	2934.781006
-2.341423	-2.065000	2932.173096
-1.341423	-2.065000	2930.729980
-0.341423	-2.065000	2935.433105
0.658577	-2.065000	2931.355713
1.658577	-2.065000	2930.458008
2.658577	-2.065000	2938.895996
3.658577	-2.065000	2930.109863
4.658577	-2.065000	2930.773926
5.658577	-2.065000	2933.543701
6.658577	-2.065000	2931.087158
7.658577	-2.065000	2933.964844
8.658577	-2.065000	2935.259521
9.658577	-2.065000	2934.891602
10.658577	-2.065000	2934.857666
11.658577	-2.065000	2935.071045
12.658577	-2.065000	2928.573730
13.658577	-2.065000	2933.699951
14.658577	-2.065000	2935.404785
15.658577	-2.065000	2932.977295
16.658577	-2.065000	2932.025391
17.658577	-2.065000	2933.721924
18.658577	-2.065000	2932.245850
19.658577	-2.065000	2930.698730
20.658577	-2.065000	2932.672852
21.658577	-2.065000	2942.649170
22.658577	-2.065000	2929.765869
23.658577	-2.065000	2937.118652
24.658577	-2.065000	2942.772461
-39.341423	-1.065000	2940.090576
-38.341423	-1.065000	2928.841064
-37.341423	-1.065000	2933.101318
-36.341423	-1.065000	2933.440186
-35.341423	-1.065000	2927.473877
-34.341423	-1.065000	2949.079346
-33.341423	-1.065000	2934.970215
-32.341423	-1.065000	2937.028809
-31.341423	-1.065000	2932.569336
-30.341423	-1.065000	2929.020508
-29.341423	-1.065000	2930.448975
-28.341423	-1.065000	2921.715332
-27.341423	-1.065000	2945.825684
-26.341423	-1.065000	2935.707764
-25.341423	-1.065000	2931.665771
-24.341423	-1.065000	2932.730469
-23.341423	-1.065000	2930.255371
-22.341423	-1.065000	2929.043945
-21.341423	-1.065000	2929.195068
-20.341423	-1.065000	2926.788086
-19.341423	-1.065000	2926.760742
-18.341423	-1.065000	2930.803467
-17.341423	-1.065000	2934.045654
-16.341423	-1.065000	2941.006592
-15.341423	-1.065000	2934.600830
-14.341423	-1.065000	2934.369385
-13.341423	-1.065000	2932.177002
-12.341423	-1.065000	2933.405029
-11.341423	-1.065000	2936.273682
-10.341423	-1.065000	2933.202393
-9.341423	-1.065000	2936.371826
-8.341423	-1.065000	2936.106934
-7.341423	-1.065000	2934.665527
-6.341423	-1.065000	2936.449707
-5.341423	-1.065000	2933.903809
-4.341423	-1.065000	2934.292969
-3.341423	-1.065000	2936.270020
-2.341423	-1.065000	2934.843750
-1.341423	-1.065000	2939.088623
-0.341423	-1.065000	2932.949463
0.658577	-1.065000	2932.254395
1.658577	-1.065000	2928.904785
2.658577	-1.065000	2933.718750
3.658577	-1.065000	2930.277344
4.658577	-1.065000	2938.762207
5.658577	-1.065000	2931.391113
6.658577	-1.065000	2932.145752
7.658577	-1.065000	2937.355957
8.658577	-1.065000	2928.395508
9.658577	-1.065000	2933.547852
10.658577	-1.065000	2932.925293
11.658577	-1.065000	2931.738770
12.658577	-1.065000	2933.072021
13.658577	-1.065000	2931.310791
14.658577	-1.065000	2929.976318
15.658577	-1.065000	2934.311523
16.658577	-1.065000	2933.893311
17.658577	-1.065000	2931.023438
18.658577	-1.065000	2934.319092
19.658577	-1.065000	2932.932129
20.658577	-1.065000	2934.721436
21.658577	-1.065000	2932.353516
22.658577	-1.065000	2941.020020
23.658577	-1.065000	2935.720703
24.658577	-1.065000	2934.263428
-39.341423	-0.065000	2914.625732
-38.341423	-0.065000	2950.756836
-37.341423	-0.065000	2920.764404
-36.341423	-0.065000	2926.084229
-35.341423	-0.065000	2921.275391
-34.341423	-0.065000	2934.859375
-33.341423	-0.065000	2933.578857
-32.341423	-0.065000	2929.703857
-31.341423	-0.065000	2934.974854
-30.341423	-0.065000	2922.118164
-29.341423	-0.065000	2940.214844
-28.341423	-0.065000	2948.098633
-27.341423	-0.065000	2912.890381
-26.341423	-0.065000	2934.392578
-25.341423	-0.065000	2933.934082
-24.341423	-0.065000	2930.444824
-23.341423	-0.065000	2932.404785
-22.341423	-0.065000	2932.108887
-21.341423	-0.065000	2919.041260
-20.341423	-0.065000	2935.436523
-19.341423	-0.065000	2930.887939
-18.341423	-0.065000	2936.521973
-17.341423	-0.065000	2933.798096
-16.341423	-0.065000	2935.158203
-15.341423	-0.065000	2933.872314
-14.341423	-0.065000	2930.816406
-13.341423	-0.065000	2929.520996
-12.341423	-0.065000	2931.270996
-11.341423	-0.065000	2933.032227
-10.341423	-0.065000	2933.663574
-9.341423	-0.065000	2937.710205
-8.341423	-0.065000	2933.882080
-7.341423	-0.065000	2936.518066
-6.341423	-0.065000	2934.210693
-5.341423	-0.065000	2932.843506
-4.341423	-0.065000	2933.136475
-3.341423	-0.065000	2935.348877
-2.341423	-0.065000	2930.824951
-1.341423	-0.065000	2933.031006
-0.341423	-0.065000	2935.089111
0.658577	-0.065000	2932.645752
1.658577	-0.065000	2932.237793
2.658577	-0.065000	2935.502441
3.658577	-0.065000	2940.450195
4.658577	-0.065000	2935.624268
5.658577	-0.065000	2933.378174
6.658577	-0.065000	2930.443604
7.658577	-0.065000	2930.220215
8.658577	-0.065000	2932.208740
9.658577	-0.065000	2931.095947
10.658577	-0.065000	2931.835449
11.658577	-0.065000	2933.323242
12.658577	-0.065000	2935.750488
13.658577	-0.065000	2938.031982
14.658577	-0.065000	2934.323975
15.658577	-0.065000	2931.421631
16.658577	-0.065000	2931.717285
17.658577	-0.065000	2933.799805
18.658577	-0.065000	2922.013184
19.658577	-0.065000	2932.754395
20.658577	-0.065000	2932.263672
21.658577	-0.065000	2930.137695
22.658577	-0.065000	2935.297119
23.658577	-0.065000	2937.120117
24.658577	-0.065000	2932.306152
-39.341423	0.935000	2940.356934
-38.341423	0.935000	2940.239258
-37.341423	0.935000	2967.028320
-36.341423	0.935000	2929.294434
-35.341423	0.935000	2933.980713
-34.341423	0.935000	2935.878418
-33.341423	0.935000	2936.839355
-32.341423	0.935000	2938.757813
-31.341423	0.935000	2938.388672
-30.341423	0.935000	2943.185303
-29.341423	0.935000	2940.899658
-28.341423	0.935000	2900.000000
-27.341423	0.935000	2906.273438
-26.341423	0.935000	2935.719482
-25.341423	0.935000	2936.287842
-24.341423	0.935000	2930.688232
-23.341423	0.935000	2933.564941
-22.341423	0.935000	2932.548584
-21.341423	0.935000	2935.586426
-20.341423	0.935000	2936.408936
-19.341423	0.935000	2931.862061
-18.341423	0.935000	2936.255127
-17.341423	0.935000	2935.922852
-16.341423	0.935000	2934.344971
-15.341423	0.935000	2935.343018
-14.341423	0.935000	2936.217041
-13.341423	0.935000	2929.820068
-12.341423	0.935000	2936.914795
-11.341423	0.935000	2936.819824
-10.341423	0.935000	2933.232422
-9.341423	0.935000	2934.797363
-8.341423	0.935000	2936.846924
-7.341423	0.935000	2933.692139
-6.341423	0.935000	2937.555176
-5.341423	0.935000	2937.066895
-4.341423	0.935000	2932.085205
-3.341423	0.935000	2933.754883
-2.341423	0.935000	2931.929688
-1.341423	0.935000	2931.473633
-0.341423	0.935000	2931.591309
0.658577	0.935000	2932.369629
1.658577	0.935000	2931.222656
2.658577	0.935000	2934.412598
3.658577	0.935000	2934.213135
4.658577	0.935000	2936.090820
5.658577	0.935000	2936.352539
6.658577	0.935000	2935.078369
7.658577	0.935000	2931.380127
8.658577	0.935000	2929.254395
9.658577	0.935000	2931.133789
10.658577	0.935000	2932.267334
11.658577	0.935000	2931.144287
12.658577	0.935000	2933.507568
13.658577	0.935000	2931.574463
14.658577	0.935000	2933.661133
15.658577	0.935000	2932.375244
16.658577	0.935000	2931.654053
17.658577	0.935000	2934.383301
18.658577	0.935000	2929.917236
19.658577	0.935000	2931.220947
20.658577	0.935000	2930.457275
21.658577	0.935000	2932.957031
22.658577	0.935000	2931.712402
23.658577	0.935000	2934.767578
24.658577	0.935000	2936.170410
-39.341423	1.935000	2928.622070
-38.341423	1.935000	2948.302979
-37.341423	1.935000	2940.306152
-36.341423	1.935000	2937.475342
-35.341423	1.935000	2934.743164
-34.341423	1.935000	2936.447021
-33.341423	1.935000	2934.687988
-32.341423	1.935000	2934.651611
-31.341423	1.935000	2936.397461
-30.341423	1.935000	2931.339355
-29.341423	1.935000	2937.137207
-28.341423	1.935000	2942.154541
-27.341423	1.935000	2942.181396
-26.341423	1.935000	2932.783936
-25.341423	1.935000	2940.935303
-24.341423	1.935000	2941.888428
-23.341423	1.935000	2930.347168
-22.341423	1.935000	2935.691406
-21.341423	1.935000	2934.527100
-20.341423	1.935000	2933.499756
-19.341423	1.935000	2936.807617
-18.341423	1.935000	2937.954102
-17.341423	1.935000	2916.500000
-16.341423	1.935000	2943.035156
-15.341423	1.935000	2926.550049
-14.341423	1.935000	2933.636230
-13.341423	1.935000	2933.362061
-12.341423	1.935000	2939.122559
-11.341423	1.935000	2934.990479
-10.341423	1.935000	2930.608643
-9.341423	1.935000	2931.499756
-8.341423	1.935000	2931.473145
-7.341423	1.935000	2935.683105
-6.341423	1.935000	2931.369873
-5.341423	1.935000	2931.313721
-4.341423	1.935000	2935.149170
-3.341423	1.935000	2930.262939
-2.341423	1.935000	2932.247803
-1.341423	1.935000	2931.505127
-0.341423	1.935000	2931.590576
0.658577	1.935000	2933.021484
1.658577	1.935000	2933.187012
2.658577	1.935000	2934.976318
3.658577	1.935000	2930.497070
4.658577	1.935000	2937.182129
5.658577	1.935000	2932.080566
6.658577	1.935000	2932.264648
7.658577	1.935000	2929.288086
8.658577	1.935000	2934.453369
9.658577	1.935000	2935.288086
10.658577	1.935000	2930.360352
11.658577	1.935000	2930.709961
12.658577	1.935000	2934.790771
13.658577	1.935000	2934.954346
14.658577	1.935000	2933.790527
15.658577	1.935000	2933.833008
16.658577	1.935000	2935.542480
17.658577	1.935000	2934.543945
18.658577	1.935000	2927.343994
19.658577	1.935000	2931.635010
20.658577	1.935000	2931.125732
21.658577	1.935000	2929.281250
22.658577	1.935000	2930.506348
23.658577	1.935000	2932.927490
24.658577	1.935000	2933.668945
-39.341423	2.935000	2931.046387
-38.341423	2.935000	2934.000244
-37.341423	2.935000	2935.582031
-36.341423	2.935000	2931.415039
-35.341423	2.935000	2936.732178
-34.341423	2.935000	2938.548828
-33.341423	2.935000	2937.540527
-32.341423	2.935000	2932.349121
-31.341423	2.935000	2936.880371
-30.341423	2.935000	2939.793457
-29.341423	2.935000	2932.939453
-28.341423	2.935000	2932.480469
-27.341423	2.935000	2932.486328
-26.341423	2.935000	2936.315430
-25.341423	2.935000	2933.579834
-24.341423	2.935000	2931.247070
-23.341423	2.935000	2939.343750
-22.341423	2.935000	2933.250488
-21.341423	2.935000	2932.974365
-20.341423	2.935000	2931.304443
-19.341423	2.935000	2929.321289
-18.341423	2.935000	2927.223145
-17.341423	2.935000	2915.140137
-16.341423	2.935000	3000.000000
-15.341423	2.935000	2932.584717
-14.341423	2.935000	2931.767822
-13.341423	2.935000	2937.541504
-12.341423	2.935000	2933.234375
-11.341423	2.935000	2935.544189
-10.341423	2.935000	2933.505859
-9.341423	2.935000	2933.239990
-8.341423	2.935000	2934.541748
-7.341423	2.935000	2930.581299
-6.341423	2.935000	2931.867676
-5.341423	2.935000	2934.435791
-4.341423	2.935000	2933.043457
-3.341423	2.935000	2930.644531
-2.341423	2.935000	2936.364990
-1.341423	2.935000	2933.044922
-0.341423	2.935000	2932.940186
0.658577	2.935000	2933.427002
1.658577	2.935000	2932.730957
2.658577	2.935000	2939.966797
3.658577	2.935000	2933.296631
4.658577	2.935000	2937.889160
5.658577	2.935000	2934.286865
6.658577	2.935000	2934.183594
7.658577	2.935000	2931.280762
8.658577	2.935000	2932.604248
9.658577	2.935000	2932.317627
10.658577	2.935000	2932.646973
11.658577	2.935000	2931.660889
12.658577	2.935000	2931.601563
13.658577	2.935000	2935.462402
14.658577	2.935000	2932.518555
15.658577	2.935000	2934.612305
16.658577	2.935000	2931.429688
17.658577	2.935000	2934.138916
18.658577	2.935000	2930.204834
19.658577	2.935000	2940.226318
20.658577	2.935000	2931.067383
21.658577	2.935000	2932.668701
22.658577	2.935000	2930.888672
23.658577	2.935000	2932.572510
24.658577	2.935000	2930.567627
-39.341423	3.935000	2935.770264
-38.341423	3.935000	2931.467285
-37.341423	3.935000	2933.270996
-36.341423	3.935000	2934.155762
-35.341423	3.935000	2933.810547
-34.341423	3.935000	2927.602783
-33.341423	3.935000	2949.989258
-32.341423	3.935000	2936.909424
-31.341423	3.935000	2932.808105
-30.341423	3.935000	2935.199707
-29.341423	3.935000	2936.241943
-28.341423	3.935000	2933.655029
-27.341423	3.935000	2935.542725
-26.341423	3.935000	2929.949707
-25.341423	3.935000	2934.171875
-24.341423	3.935000	2932.660889
-23.341423	3.935000	2932.961670
-22.341423	3.935000	2933.538330
-21.341423	3.935000	2936.137207
-20.341423	3.935000	2931.772705
-19.341423	3.935000	2935.197510
-18.341423	3.935000	2928.539795
-17.341423	3.935000	2930.018066
-16.341423	3.935000	2918.170166
-15.341423	3.935000	2934.904785
-14.341423	3.935000	2925.111328
-13.341423	3.935000	2927.616211
-12.341423	3.935000	2935.440430
-11.341423	3.935000	2934.285889
-10.341423	3.935000	2934.824219
-9.341423	3.935000	2932.494873
-8.341423	3.935000	2939.220215
-7.341423	3.935000	2933.259521
-6.341423	3.935000	2932.687500
-5.341423	3.935000	2929.627197
-4.341423	3.935000	2931.446533
-3.341423	3.935000	2932.871094
-2.341423	3.935000	2929.929443
-1.341423	3.935000	2935.250977
-0.341423	3.935000	2937.966309
0.658577	3.935000	2932.491211
1.658577	3.935000	2933.910156
2.658577	3.935000	2934.614258
3.658577	3.935000	2934.913086
4.658577	3.935000	2933.687744
5.658577	3.935000	2935.018066
6.658577	3.935000	2936.771729
7.658577	3.935000	2929.814941
8.658577	3.935000	2931.629150
9.658577	3.935000	2931.937988
10.658577	3.935000	2933.691650
11.658577	3.935000	2933.218994
12.658577	3.935000	2932.892822
13.658577	3.935000	2928.272461
14.658577	3.935000	2932.874756
15.658577	3.935000	2930.852539
16.658577	3.935000	2929.149414
17.658577	3.935000	2931.731445
18.658577	3.935000	2933.470703
19.658577	3.935000	2934.125000
20.658577	3.935000	2933.507080
21.658577	3.935000	2930.398682
22.658577	3.935000	2931.650879
23.658577	3.935000	2929.331055
24.658577	3.935000	2929.170410
-39.341423	4.935000	2939.802979
-38.341423	4.935000	2932.990723
-37.341423	4.935000	2938.597656
-36.341423	4.935000	2932.182129
-35.341423	4.935000	2930.880127
-34.341423	4.935000	2931.429932
-33.341423	4.935000	2934.040039
-32.341423	4.935000	2935.274170
-31.341423	4.935000	2933.141357
-30.341423	4.935000	2933.645508
-29.341423	4.935000	2933.424561
-28.341423	4.935000	2934.303711
-27.341423	4.935000	2934.168701
-26.341423	4.935000	2934.449707
-25.341423	4.935000	2932.280762
-24.341423	4.935000	2943.772949
-23.341423	4.935000	2934.963135
-22.341423	4.935000	2930.581543
-21.341423	4.935000	2934.979980
-20.341423	4.935000	2933.931396
-19.341423	4.935000	2930.713867
-18.341423	4.935000	2933.340576
-17.341423	4.935000	2931.596436
-16.341423	4.935000	2928.181885
-15.341423	4.935000	2929.601563
-14.341423	4.935000	2930.484375
-13.341423	4.935000	2932.810059
-12.341423	4.935000	2934.869629
-11.341423	4.935000	2931.679199
-10.341423	4.935000	2936.582275
-9.341423	4.935000	2931.834229
-8.341423	4.935000	2937.845459
-7.341423	4.935000	2933.476074
-6.341423	4.935000	2923.801514
-5.341423	4.935000	2932.817383
-4.341423	4.935000	2939.793701
-3.341423	4.935000	2937.584229
-2.341423	4.935000	2935.606689
-1.341423	4.935000	2931.854492
-0.341423	4.935000	2935.870361
0.658577	4.935000	2935.859619
1.658577	4.935000	2930.579590
2.658577	4.935000	2932.113770
3.658577	4.935000	2936.096191
4.658577	4.935000	2934.852783
5.658577	4.935000	2930.677734
6.658577	4.935000	2939.020020
7.658577	4.935000	2931.982910
8.658577	4.935000	2933.053467
9.658577	4.935000	2932.536865
10.658577	4.935000	2933.217773
11.658577	4.935000	2934.586182
12.658577	4.935000	2928.489258
13.658577	4.935000	2932.064209
14.658577	4.935000	2935.136719
15.658577	4.935000	2934.596191
16.658577	4.935000	2933.328369
17.658577	4.935000	2932.846924
18.658577	4.935000	2935.269043
19.658577	4.935000	2934.084717
20.658577	4.935000	2931.488525
21.658577	4.935000	2932.414551
22.658577	4.935000	2938.956787
23.658577	4.935000	2931.840088
24.658577	4.935000	2936.566406
-39.341423	5.935000	2935.235596
-38.341423	5.935000	2931.604492
-37.341423	5.935000	2934.225342
-36.341423	5.935000	2929.598389
-35.341423	5.935000	2928.811035
-34.341423	5.935000	2930.288574
-33.341423	5.935000	2927.496582
-32.341423	5.935000	2933.191162
-31.341423	5.935000	2930.676758
-30.341423	5.935000	2932.942139
-29.341423	5.935000	2935.413086
-28.341423	5.935000	2929.298828
-27.341423	5.935000	2940.919922
-26.341423	5.935000	2933.847412
-25.341423	5.935000	2932.715576
-24.341423	5.935000	2933.322266
-23.341423	5.935000	2933.695068
-22.341423	5.935000	2935.195068
-21.341423	5.935000	2928.156738
-20.341423	5.935000	2931.561279
-19.341423	5.935000	2934.951172
-18.341423	5.935000	2932.668213
-17.341423	5.935000	2939.766113
-16.341423	5.935000	2929.321289
-15.341423	5.935000	2933.634766
-14.341423	5.935000	2932.428223
-13.341423	5.935000	2933.835693
-12.341423	5.935000	2931.023926
-11.341423	5.935000	2934.495605
-10.341423	5.935000	2934.773438
-9.341423	5.935000	2939.000977
-8.341423	5.935000	2933.191895
-7.341423	5.935000	2932.939453
-6.341423	5.935000	2934.776123
-5.341423	5.935000	2934.374756
-4.341423	5.935000	2938.574219
-3.341423	5.935000	2931.118408
-2.341423	5.935000	2931.961914
-1.341423	5.935000	2930.739258
-0.341423	5.935000	2932.100342
0.658577	5.935000	2935.693359
1.658577	5.935000	2933.380127
2.658577	5.935000	2933.892090
3.658577	5.935000	2931.177979
4.658577	5.935000	2933.610107
5.658577	5.935000	2934.747070
6.658577	5.935000	2936.229492
7.658577	5.935000	2932.360352
8.658577	5.935000	2933.573486
9.658577	5.935000	2930.718750
10.658577	5.935000	2932.044434
11.658577	5.935000	2929.706787
12.658577	5.935000	2931.570068
13.658577	5.935000	2932.681152
14.658577	5.935000	2931.140869
15.658577	5.935000	2933.042480
16.658577	5.935000	2930.817627
17.658577	5.935000	2935.360107
18.658577	5.935000	2930.070068
19.658577	5.935000	2930.638916
20.658577	5.935000	2929.602295
21.658577	5.935000	2930.851318
22.658577	5.935000	2930.356934
23.658577	5.935000	2931.029297
24.658577	5.935000	2930.377441
-39.341423	6.935000	2932.829346
-38.341423	6.935000	2935.922119
-37.341423	6.935000	2931.185059
-36.341423	6.935000	2937.440674
-35.341423	6.935000	2932.112061
-34.341423	6.935000	2930.718018
-33.341423	6.935000	2931.014893
-32.341423	6.935000	2932.172119
-31.341423	6.935000	2927.185059
-30.341423	6.935000	2930.926270
-29.341423	6.935000	2933.229736
-28.341423	6.935000	2922.897705
-27.341423	6.935000	2939.741211
-26.341423	6.935000	2933.179932
-25.341423	6.935000	2934.344238
-24.341423	6.935000	2935.429688
-23.341423	6.935000	2933.635010
-22.341423	6.935000	2937.916260
-21.341423	6.935000	2934.515869
-20.341423	6.935000	2937.220459
-19.341423	6.935000	2934.030518
-18.341423	6.935000	2930.027100
-17.341423	6.935000	2928.739502
-16.341423	6.935000	2930.415039
-15.341423	6.935000	2932.771973
-14.341423	6.935000	2931.985352
-13.341423	6.935000	2933.153809
-12.341423	6.935000	2934.461426
-11.341423	6.935000	2932.136230
-10.341423	6.935000	2939.406982
-9.341423	6.935000	2936.911377
-8.341423	6.935000	2935.414551
-7.341423	6.935000	2937.112549
-6.341423	6.935000	2932.840332
-5.341423	6.935000	2930.338867
-4.341423	6.935000	2930.330566
-3.341423	6.935000	2932.995361
-2.341423	6.935000	2930.693604
-1.341423	6.935000	2937.760986
-0.341423	6.935000	2935.340088
0.658577	6.935000	2934.860840
1.658577	6.935000	2931.169678
2.658577	6.935000	2932.480469
3.658577	6.935000	2937.372803
4.658577	6.935000	2934.019043
5.658577	6.935000	2936.942627
6.658577	6.935000	2936.522949
7.658577	6.935000	2932.055176
8.658577	6.935000	2933.770752
9.658577	6.935000	2934.091797
10.658577	6.935000	2935.132080
11.658577	6.935000	2931.651855
12.658577	6.935000	2932.431396
13.658577	6.935000	2932.725830
14.658577	6.935000	2935.466309
15.658577	6.935000	2930.960205
16.658577	6.935000	2933.774170
17.658577	6.935000	2928.936768
18.658577	6.935000	2932.151611
19.658577	6.935000	2929.631104
20.658577	6.935000	2930.584717
21.658577	6.935000	2929.892090
22.658577	6.935000	2928.155762
23.658577	6.935000	2932.830322
24.658577	6.935000	2932.645264
-39.341423	7.935000	2931.609131
-38.341423	7.935000	2931.295898
-37.341423	7.935000	2931.121094
-36.341423	7.935000	2932.782227
-35.341423	7.935000	2931.619141
-34.341423	7.935000	2931.005859
-33.341423	7.935000	2930.321777
-32.341423	7.935000	2931.659180
-31.341423	7.935000	2930.089355
-30.341423	7.935000	2932.486572
-29.341423	7.935000	2932.578857
-28.341423	7.935000	2936.478516
-27.341423	7.935000	2935.384277
-26.341423	7.935000	2935.596924
-25.341423	7.935000	2934.648682
-24.341423	7.935000	2935.180908
-23.341423	7.935000	2935.652588
-22.341423	7.935000	2935.268555
-21.341423	7.935000	2935.362305
-20.341423	7.935000	2933.984131
-19.341423	7.935000	2931.625732
-18.341423	7.935000	2935.893555
-17.341423	7.935000	2932.604004
-16.341423	7.935000	2932.065674
-15.341423	7.935000	2932.470703
-14.341423	7.935000	2934.039795
-13.341423	7.935000	2934.608154
-12.341423	7.935000	2931.662109
-11.341423	7.935000	2936.500244
-10.341423	7.935000	2940.047363
-9.341423	7.935000	2940.952881
-8.341423	7.935000	2936.678467
-7.341423	7.935000	2939.307617
-6.341423	7.935000	2936.224854
-5.341423	7.935000	2933.934570
-4.341423	7.935000	2934.233887
-3.341423	7.935000	2928.420898
-2.341423	7.935000	2935.513672
-1.341423	7.935000	2932.013184
-0.341423	7.935000	2931.608887
0.658577	7.935000	2933.385498
1.658577	7.935000	2932.840576
2.658577	7.935000	2931.511963
3.658577	7.935000	2934.034424
4.658577	7.935000	2933.144531
5.658577	7.935000	2938.247803
6.658577	7.935000	2936.814453
7.658577	7.935000	2936.385742
8.658577	7.935000	2933.596436
9.658577	7.935000	2933.723145
10.658577	7.935000	2936.027100
11.658577	7.935000	2935.423340
12.658577	7.935000	2933.099365
13.658577	7.935000	2930.837646
14.658577	7.935000	2933.343506
15.658577	7.935000	2933.308594
16.658577	7.935000	2930.852295
17.658577	7.935000	2932.109863
18.658577	7.935000	2928.804932
19.658577	7.935000	2929.049561
20.658577	7.935000	2930.745361
21.658577	7.935000	2934.883789
22.658577	7.935000	2933.747803
23.658577	7.935000	2932.227295
24.658577	7.935000	2931.983398
-39.341423	8.935000	2934.533936
-38.341423	8.935000	2938.845459
-37.341423	8.935000	2930.868896
-36.341423	8.935000	2930.685059
-35.341423	8.935000	2933.296387
-34.341423	8.935000	2931.335449
-33.341423	8.935000	2930.774658
-32.341423	8.935000	2931.873779
-31.341423	8.935000	2929.702881
-30.341423	8.935000	2931.090820
-29.341423	8.935000	2933.563477
-28.341423	8.935000	2934.547607
-27.341423	8.935000	2936.520264
-26.341423	8.935000	2932.979492
-25.341423	8.935000	2936.341309
-24.341423	8.935000	2934.062500
-23.341423	8.935000	2934.464844
-22.341423	8.935000	2935.606201
-21.341423	8.935000	2937.360107
-20.341423	8.935000	2935.012207
-19.341423	8.935000	2934.069336
-18.341423	8.935000	2932.630615
-17.341423	8.935000	2931.511963
-16.341423	8.935000	2932.053955
-15.341423	8.935000	2936.559082
-14.341423	8.935000	2932.335449
-13.341423	8.935000	2932.886719
-12.341423	8.935000	2934.420410
-11.341423	8.935000	2937.770996
-10.341423	8.935000	2939.052979
-9.341423	8.935000	2937.549805
-8.341423	8.935000	2938.600830
-7.341423	8.935000	2937.758057
-6.341423	8.935000	2936.493164
-5.341423	8.935000	2933.742920
-4.341423	8.935000	2933.048340
-3.341423	8.935000	2931.472412
-2.341423	8.935000	2932.575439
-1.341423	8.935000	2934.785156
-0.341423	8.935000	2934.313232
0.658577	8.935000	2934.791748
1.658577	8.935000	2932.929199
2.658577	8.935000	2933.459229
3.658577	8.935000	2935.501953
4.658577	8.935000	2933.238770
5.658577	8.935000	2936.780029
6.658577	8.935000	2936.256348
7.658577	8.935000	2938.823975
8.658577	8.935000	2934.717285
9.658577	8.935000	2936.264404
10.658577	8.935000	2938.024902
11.658577	8.935000	2937.137695
12.658577	8.935000	2931.736572
13.658577	8.935000	2930.731689
14.658577	8.935000	2934.148926
15.658577	8.935000	2916.449707
16.658577	8.935000	2934.840332
17.658577	8.935000	2930.963135
18.658577	8.935000	2927.863770
19.658577	8.935000	2953.487549
20.658577	8.935000	2937.714355
21.658577	8.935000	2930.498291
22.658577	8.935000	2937.851074
23.658577	8.935000	2924.775635
24.658577	8.935000	2932.010986
-39.341423	9.935000	2932.149658
-38.341423	9.935000	2926.901611
-37.341423	9.935000	2930.789307
-36.341423	9.935000	2931.810303
-35.341423	9.935000	2930.583984
-34.341423	9.935000	2935.669678
-33.341423	9.935000	2933.223389
-32.341423	9.935000	2937.394043
-31.341423	9.935000	2935.284912
-30.341423	9.935000	2931.497070
-29.341423	9.935000	2929.126709
-28.341423	9.935000	2932.512695
-27.341423	9.935000	2935.414063
-26.341423	9.935000	2934.804932
-25.341423	9.935000	2932.510498
-24.341423	9.935000	2936.171387
-23.341423	9.935000	2932.132813
-22.341423	9.935000	2936.997559
-21.341423	9.935000	2933.712402
-20.341423	9.935000	2936.674805
-19.341423	9.935000	2934.535400
-18.341423	9.935000	2934.176514
-17.341423	9.935000	2935.004395
-16.341423	9.935000	2937.616211
-15.341423	9.935000	2932.890625
-14.341423	9.935000	2932.918701
-13.341423	9.935000	2932.611816
-12.341423	9.935000	2932.509277
-11.341423	9.935000	2934.587402
-10.341423	9.935000	2938.016113
-9.341423	9.935000	2939.822754
-8.341423	9.935000	2938.550293
-7.341423	9.935000	2936.942383
-6.341423	9.935000	2931.085938
-5.341423	9.935000	2934.334229
-4.341423	9.935000	2929.907471
-3.341423	9.935000	2933.932373
-2.341423	9.935000	2936.535400
-1.341423	9.935000	2936.408203
-0.341423	9.935000	2933.343262
0.658577	9.935000	2930.848633
1.658577	9.935000	2932.624756
2.658577	9.935000	2934.894531
3.658577	9.935000	2933.870605
4.658577	9.935000	2936.265381
5.658577	9.935000	2936.106445
6.658577	9.935000	2931.575684
7.658577	9.935000	2935.704590
8.658577	9.935000	2937.363037
9.658577	9.935000	2939.762207
10.658577	9.935000	2936.868652
11.658577	9.935000	2935.445801
12.658577	9.935000	2934.764404
13.658577	9.935000	2930.749023
14.658577	9.935000	2900.000000
15.658577	9.935000	2900.000000
16.658577	9.935000	2917.069824
17.658577	9.935000	2900.000000
18.658577	9.935000	2900.227051
19.658577	9.935000	2928.702637
20.658577	9.935000	2929.600830
21.658577	9.935000	2933.052002
22.658577	9.935000	2933.273926
23.658577	9.935000	2908.823730
24.658577	9.935000	2926.842529
-39.341423	10.935000	2929.470947
-38.341423	10.935000	2928.906250
-37.341423	10.935000	2929.461914
-36.341423	10.935000	2929.897461
-35.341423	10.935000	2929.500244
-34.341423	10.935000	2931.396973
-33.341423	10.935000	2933.249023
-32.341423	10.935000	2930.941162
-31.341423	10.935000	2931.595215
-30.341423	10.935000	2937.270020
-29.341423	10.935000	2937.131836
-28.341423	10.935000	2936.951172
-27.341423	10.935000	2933.910400
-26.341423	10.935000	2932.704590
-25.341423	10.935000	2938.246826
-24.341423	10.935000	2900.000000
-23.341423	10.935000	2933.236816
-22.341423	10.935000	2932.682617
-21.341423	10.935000	2933.461914
-20.341423	10.935000	2938.232666
-19.341423	10.935000	2935.186279
-18.341423	10.935000	2931.989014
-17.341423	10.935000	2934.922607
-16.341423	10.935000	2934.818848
-15.341423	10.935000	2933.289551
-14.341423	10.935000	2933.711670
-13.341423	10.935000	2934.637451
-12.341423	10.935000	2933.830811
-11.341423	10.935000	2931.968262
-10.341423	10.935000	2938.869385
-9.341423	10.935000	2939.418945
-8.341423	10.935000	2937.382813
-7.341423	10.935000	2937.328613
-6.341423	10.935000	2933.691895
-5.341423	10.935000	2933.623535
-4.341423	10.935000	2931.331543
-3.341423	10.935000	2932.229004
-2.341423	10.935000	2936.229492
-1.341423	10.935000	2931.587158
-0.341423	10.935000	2931.580811
0.658577	10.935000	2933.461426
1.658577	10.935000	2932.316406
2.658577	10.935000	2934.215820
3.658577	10.935000	2934.367920
4.658577	10.935000	2937.351563
5.658577	10.935000	2930.800049
6.658577	10.935000	2941.949463
7.658577	10.935000	2932.325928
8.658577	10.935000	2930.846436
9.658577	10.935000	2926.818359
10.658577	10.935000	2933.511963
11.658577	10.935000	2933.542969
12.658577	10.935000	2937.169189
13.658577	10.935000	2928.085449
14.658577	10.935000	2922.281982
15.658577	10.935000	2900.000000
16.658577	10.935000	2994.201172
17.658577	10.935000	2900.000000
18.658577	10.935000	2900.000000
19.658577	10.935000	2933.134033
20.658577	10.935000	2929.909180
21.658577	10.935000	2934.184814
22.658577	10.935000	2930.242432
23.658577	10.935000	2927.350586
24.658577	10.935000	2932.964844
-39.341423	11.935000	2934.648193
-38.341423	11.935000	2933.219238
-37.341423	11.935000	2937.033447
-36.341423	11.935000	2933.105225
-35.341423	11.935000	2928.868652
-34.341423	11.935000	2925.355713
-33.341423	11.935000	2930.265137
-32.341423	11.935000	2931.278320
-31.341423	11.935000	2934.813477
-30.341423	11.935000	2929.748291
-29.341423	11.935000	2932.690918
-28.341423	11.935000	2930.789551
-27.341423	11.935000	2932.884766
-26.341423	11.935000	2934.860352
-25.341423	11.935000	2921.167236
-24.341423	11.935000	2934.463135
-23.341423	11.935000	2931.567139
-22.341423	11.935000	2935.966553
-21.341423	11.935000	2935.065674
-20.341423	11.935000	2939.003174
-19.341423	11.935000	2932.049072
-18.341423	11.935000	2934.275635
-17.341423	11.935000	2936.590820
-16.341423	11.935000	2936.510742
-15.341423	11.935000	2934.452148
-14.341423	11.935000	2935.179199
-13.341423	11.935000	2935.550781
-12.341423	11.935000	2936.032471
-11.341423	11.935000	2937.146484
-10.341423	11.935000	2936.364014
-9.341423	11.935000	2938.383789
-8.341423	11.935000	2936.404541
-7.341423	11.935000	2939.641357
-6.341423	11.935000	2937.155029
-5.341423	11.935000	2932.411377
-4.341423	11.935000	2931.440186
-3.341423	11.935000	2932.386475
-2.341423	11.935000	2927.442139
-1.341423	11.935000	2932.631836
-0.341423	11.935000	2932.882813
0.658577	11.935000	2934.323975
1.658577	11.935000	2934.451416
2.658577	11.935000	2934.538086
3.658577	11.935000	2925.226318
4.658577	11.935000	2936.041992
5.658577	11.935000	2934.714355
6.658577	11.935000	2932.132080
7.658577	11.935000	2937.334229
8.658577	11.935000	2930.144531
9.658577	11.935000	2938.114014
10.658577	11.935000	2932.498779
11.658577	11.935000	2934.870361
12.658577	11.935000	2931.259521
13.658577	11.935000	2930.047363
14.658577	11.935000	2945.973633
15.658577	11.935000	3000.000000
16.658577	11.935000	2923.955811
17.658577	11.935000	2900.645264
18.658577	11.935000	2935.582520
19.658577	11.935000	2900.000000
20.658577	11.935000	2933.759033
21.658577	11.935000	2931.910400
22.658577	11.935000	2931.238281
23.658577	11.935000	2931.188965
24.658577	11.935000	2928.323730
-39.341423	12.935000	2931.605713
-38.341423	12.935000	2932.548828
-37.341423	12.935000	2928.655029
-36.341423	12.935000	2933.135254
-35.341423	12.935000	2932.535645
-34.341423	12.935000	2932.323730
-33.341423	12.935000	2931.692139
-32.341423	12.935000	2932.351074
-31.341423	12.935000	2930.898438
-30.341423	12.935000	2935.807617
-29.341423	12.935000	2931.712158
-28.341423	12.935000	2932.256348
-27.341423	12.935000	2933.696289
-26.341423	12.935000	2935.340820
-25.341423	12.935000	2940.161621
-24.341423	12.935000	2932.946045
-23.341423	12.935000	2930.451416
-22.341423	12.935000	2931.629639
-21.341423	12.935000	2932.554443
-20.341423	12.935000	2933.532227
-19.341423	12.935000	2930.479004
-18.341423	12.935000	2934.181152
-17.341423	12.935000	2936.733643
-16.341423	12.935000	2935.239990
-15.341423	12.935000	2933.304932
-14.341423	12.935000	2934.315186
-13.341423	12.935000	2933.533936
-12.341423	12.935000	2931.117676
-11.341423	12.935000	2933.371582
-10.341423	12.935000	2929.878906
-9.341423	12.935000	2932.005615
-8.341423	12.935000	2938.987061
-7.341423	12.935000	2934.989258
-6.341423	12.935000	2935.892334
-5.341423	12.935000	2936.689453
-4.341423	12.935000	2930.069580
-3.341423	12.935000	2930.813232
-2.341423	12.935000	2935.520264
-1.341423	12.935000	2935.886963
-0.341423	12.935000	2929.648926
0.658577	12.935000	2936.735840
1.658577	12.935000	2934.740723
2.658577	12.935000	2936.849121
3.658577	12.935000	2939.253418
4.658577	12.935000	2944.133545
5.658577	12.935000	2930.567139
6.658577	12.935000	2929.593506
7.658577	12.935000	2933.566162
8.658577	12.935000	2930.111328
9.658577	12.935000	2933.224365
10.658577	12.935000	2934.379639
11.658577	12.935000	2933.444580
12.658577	12.935000	2930.118896
13.658577	12.935000	2925.326904
14.658577	12.935000	2907.917480
15.658577	12.935000	2900.000000
16.658577	12.935000	2900.384521
17.658577	12.935000	2900.000000
18.658577	12.935000	2919.605713
19.658577	12.935000	2926.393311
20.658577	12.935000	2900.000000
21.658577	12.935000	2910.699707
22.658577	12.935000	2939.830078
23.658577	12.935000	2928.219727
24.658577	12.935000	2938.683594
-39.341423	13.935000	2931.471924
-38.341423	13.935000	2930.655029
-37.341423	13.935000	2931.806885
-36.341423	13.935000	2930.600342
-35.341423	13.935000	2940.251709
-34.341423	13.935000	2937.773193
-33.341423	13.935000	2931.473877
-32.341423	13.935000	2930.161621
-31.341423	13.935000	2933.036377
-30.341423	13.935000	2934.951416
-29.341423	13.935000	2936.210449
-28.341423	13.935000	2936.903320
-27.341423	13.935000	2934.966797
-26.341423	13.935000	2936.733398
-25.341423	13.935000	2937.149658
-24.341423	13.935000	2934.797607
-23.341423	13.935000	2932.596436
-22.341423	13.935000	2935.784668
-21.341423	13.935000	2931.781250
-20.341423	13.935000	2935.532715
-19.341423	13.935000	2929.838623
-18.341423	13.935000	2934.498779
-17.341423	13.935000	2933.492432
-16.341423	13.935000	2934.525146
-15.341423	13.935000	2934.541260
-14.341423	13.935000	2931.989258
-13.341423	13.935000	2933.558350
-12.341423	13.935000	2932.855713
-11.341423	13.935000	2933.922119
-10.341423	13.935000	2931.103760
-9.341423	13.935000	2936.600342
-8.341423	13.935000	2940.847656
-7.341423	13.935000	2934.270264
-6.341423	13.935000	2932.300537
-5.341423	13.935000	2932.201172
-4.341423	13.935000	2932.167480
-3.341423	13.935000	2931.336426
-2.341423	13.935000	2933.900391
-1.341423	13.935000	2932.390381
-0.341423	13.935000	2933.958008
0.658577	13.935000	2934.692627
1.658577	13.935000	2941.091797
2.658577	13.935000	2934.412109
3.658577	13.935000	2941.218994
4.658577	13.935000	2911.859863
5.658577	13.935000	2934.750488
6.658577	13.935000	2930.631592
7.658577	13.935000	2930.749756
8.658577	13.935000	2933.133301
9.658577	13.935000	2934.218994
10.658577	13.935000	2933.823975
11.658577	13.935000	2933.773682
12.658577	13.935000	2933.569092
13.658577	13.935000	2929.474365
14.658577	13.935000	2915.268311
15.658577	13.935000	2924.812988
16.658577	13.935000	2900.000000
17.658577	13.935000	2903.754150
18.658577	13.935000	2922.648926
19.658577	13.935000	2951.624512
20.658577	13.935000	2935.326904
21.658577	13.935000	2999.407471
22.658577	13.935000	2900.153809
23.658577	13.935000	2924.470459
24.658577	13.935000	2922.290771
-39.341423	14.935000	2934.798340
-38.341423	14.935000	2934.654297
-37.341423	14.935000	2930.914063
-36.341423	14.935000	2930.391113
-35.341423	14.935000	2937.168457
-34.341423	14.935000	2933.589111
-33.341423	14.935000	2933.197754
-32.341423	14.935000	2932.316895
-31.341423	14.935000	2934.356445
-30.341423	14.935000	2931.012207
-29.341423	14.935000	2935.607422
-28.341423	14.935000	2937.433838
-27.341423	14.935000	2936.146729
-26.341423	14.935000	2937.241699
-25.341423	14.935000	2934.906250
-24.341423	14.935000	2938.226563
-23.341423	14.935000	2930.408936
-22.341423	14.935000	2934.736084
-21.341423	14.935000	2933.473877
-20.341423	14.935000	2929.866211
-19.341423	14.935000	2929.110596
-18.341423	14.935000	2933.636719
-17.341423	14.935000	2932.794434
-16.341423	14.935000	2932.974121
-15.341423	14.935000	2932.855713
-14.341423	14.935000	2933.200195
-13.341423	14.935000	2932.548340
-12.341423	14.935000	2932.382080
-11.341423	14.935000	2931.814697
-10.341423	14.935000	2907.489502
-9.341423	14.935000	2925.990967
-8.341423	14.935000	2938.406738
-7.341423	14.935000	2930.089844
-6.341423	14.935000	2931.789795
-5.341423	14.935000	2934.896240
-4.341423	14.935000	2938.332031
-3.341423	14.935000	2930.820068
-2.341423	14.935000	2937.629150
-1.341423	14.935000	2930.962891
-0.341423	14.935000	2932.930420
0.658577	14.935000	2933.839600
1.658577	14.935000	2936.087646
2.658577	14.935000	2934.628906
3.658577	14.935000	2939.908447
4.658577	14.935000	2904.998779
5.658577	14.935000	2938.680176
6.658577	14.935000	2921.926514
7.658577	14.935000	2929.763672
8.658577	14.935000	2932.551270
9.658577	14.935000	2933.271240
10.658577	14.935000	2935.897949
11.658577	14.935000	2935.307373
12.658577	14.935000	2929.879639
13.658577	14.935000	2906.709229
14.658577	14.935000	2924.705566
15.658577	14.935000	2900.714355
16.658577	14.935000	2922.172363
17.658577	14.935000	3000.000000
18.658577	14.935000	2909.066895
19.658577	14.935000	2971.193848
20.658577	14.935000	2900.000000
21.658577	14.935000	3000.000000
22.658577	14.935000	2900.000000
23.658577	14.935000	2900.000000
24.658577	14.935000	2900.926270
-39.341423	15.935000	2930.911621
-38.341423	15.935000	2931.643311
-37.341423	15.935000	2932.332275
-36.341423	15.935000	2933.320801
-35.341423	15.935000	2931.427246
-34.341423	15.935000	2932.485596
-33.341423	15.935000	2931.190186
-32.341423	15.935000	2932.627930
-31.341423	15.935000	2931.879883
-30.341423	15.935000	2935.210693
-29.341423	15.935000	2936.741699
-28.341423	15.935000	2937.526855
-27.341423	15.935000	2936.787598
-26.341423	15.935000	2935.116943
-25.341423	15.935000	2937.401123
-24.341423	15.935000	2932.437256
-23.341423	15.935000	2915.275635
-22.341423	15.935000	2928.922852
-21.341423	15.935000	2937.259766
-20.341423	15.935000	2928.325928
-19.341423	15.935000	2929.845947
-18.341423	15.935000	2933.197754
-17.341423	15.935000	2930.491211
-16.341423	15.935000	2932.064453
-15.341423	15.935000	2933.819092
-14.341423	15.935000	2935.649902
-13.341423	15.935000	2933.161865
-12.341423	15.935000	2935.354492
-11.341423	15.935000	2931.497070
-10.341423	15.935000	2942.369141
-9.341423	15.935000	2900.000000
-8.341423	15.935000	2929.594971
-7.341423	15.935000	2930.564697
-6.341423	15.935000	2931.763184
-5.341423	15.935000	2942.630127
-4.341423	15.935000	2934.515869
-3.341423	15.935000	2934.463867
-2.341423	15.935000	2939.762451
-1.341423	15.935000	2934.084961
-0.341423	15.935000	2933.727051
0.658577	15.935000	2937.110107
1.658577	15.935000	2934.671631
2.658577	15.935000	2935.258545
3.658577	15.935000	2934.570313
4.658577	15.935000	2957.900635
5.658577	15.935000	2999.804688
6.658577	15.935000	2959.406494
7.658577	15.935000	2943.798584
8.658577	15.935000	2925.627686
9.658577	15.935000	2932.010498
10.658577	15.935000	2932.339111
11.658577	15.935000	2930.315674
12.658577	15.935000	2932.026611
13.658577	15.935000	2924.541016
14.658577	15.935000	2932.180908
15.658577	15.935000	2900.000000
16.658577	15.935000	2939.988281
17.658577	15.935000	2963.382324
18.658577	15.935000	2990.854248
19.658577	15.935000	3000.000000
20.658577	15.935000	2929.751465
21.658577	15.935000	2923.166748
22.658577	15.935000	2904.793457
23.658577	15.935000	2900.000000
24.658577	15.935000	2908.516846
