#XList		#YList		#IList		
-39.341423	-21.065000	10.867194
-38.341423	-21.065000	15.188534
-37.341423	-21.065000	16.749746
-36.341423	-21.065000	27.394791
-35.341423	-21.065000	10.384792
-34.341423	-21.065000	18.709059
-33.341423	-21.065000	21.880156
-32.341423	-21.065000	16.055010
-31.341423	-21.065000	41.367237
-30.341423	-21.065000	24.223867
-29.341423	-21.065000	43.632633
-28.341423	-21.065000	15.312808
-27.341423	-21.065000	42.236248
-26.341423	-21.065000	12.287065
-25.341423	-21.065000	19.754284
-24.341423	-21.065000	8.784819
-23.341423	-21.065000	5.719835
-22.341423	-21.065000	11.194184
-21.341423	-21.065000	23.912258
-20.341423	-21.065000	30.112190
-19.341423	-21.065000	1.648506
-18.341423	-21.065000	1.331110
-17.341423	-21.065000	39.836838
-16.341423	-21.065000	37.108379
-15.341423	-21.065000	36.573074
-14.341423	-21.065000	38.882339
-13.341423	-21.065000	40.652027
-12.341423	-21.065000	41.371418
-11.341423	-21.065000	36.038853
-10.341423	-21.065000	4.677052
-9.341423	-21.065000	1314.248901
-8.341423	-21.065000	14.331377
-7.341423	-21.065000	16.089003
-6.341423	-21.065000	15.815105
-5.341423	-21.065000	17.901876
-4.341423	-21.065000	23.576004
-3.341423	-21.065000	0.639823
-2.341423	-21.065000	14.285098
-1.341423	-21.065000	15.833670
-0.341423	-21.065000	18.407242
0.658577	-21.065000	17.749760
1.658577	-21.065000	14.988831
2.658577	-21.065000	15.090149
3.658577	-21.065000	14.693016
4.658577	-21.065000	23.573692
5.658577	-21.065000	30.412868
6.658577	-21.065000	4.247962
7.658577	-21.065000	12.472302
8.658577	-21.065000	1.632350
9.658577	-21.065000	70.541100
10.658577	-21.065000	15.594628
11.658577	-21.065000	14.277895
12.658577	-21.065000	17.010359
13.658577	-21.065000	13.981318
14.658577	-21.065000	19.645161
15.658577	-21.065000	20.468323
16.658577	-21.065000	17.772144
17.658577	-21.065000	16.382641
18.658577	-21.065000	18.687912
19.658577	-21.065000	44.554878
20.658577	-21.065000	19.525688
21.658577	-21.065000	9.931726
22.658577	-21.065000	313.200256
23.658577	-21.065000	1.030707
24.658577	-21.065000	1.164052
-39.341423	-20.065000	20.619701
-38.341423	-20.065000	13.527121
-37.341423	-20.065000	19.748182
-36.341423	-20.065000	21.108843
-35.341423	-20.065000	19.400059
-34.341423	-20.065000	18.071405
-33.341423	-20.065000	14.612215
-32.341423	-20.065000	21.519236
-31.341423	-20.065000	31.758467
-30.341423	-20.065000	28.414333
-29.341423	-20.065000	28.248579
-28.341423	-20.065000	15.645543
-27.341423	-20.065000	24.302410
-26.341423	-20.065000	16.417433
-25.341423	-20.065000	23.620811
-24.341423	-20.065000	13.724694
-23.341423	-20.065000	16.285696
-22.341423	-20.065000	31.591248
-21.341423	-20.065000	21.694365
-20.341423	-20.065000	18.210751
-19.341423	-20.065000	15.454198
-18.341423	-20.065000	16.864651
-17.341423	-20.065000	39.188118
-16.341423	-20.065000	38.452488
-15.341423	-20.065000	38.418652
-14.341423	-20.065000	39.784840
-13.341423	-20.065000	39.917679
-12.341423	-20.065000	37.410645
-11.341423	-20.065000	36.380173
-10.341423	-20.065000	10.427062
-9.341423	-20.065000	15.880756
-8.341423	-20.065000	14.472265
-7.341423	-20.065000	14.430305
-6.341423	-20.065000	14.935300
-5.341423	-20.065000	16.391537
-4.341423	-20.065000	29.293001
-3.341423	-20.065000	33.291897
-2.341423	-20.065000	25.011246
-1.341423	-20.065000	19.069258
-0.341423	-20.065000	17.846682
0.658577	-20.065000	18.404680
1.658577	-20.065000	20.156960
2.658577	-20.065000	14.875825
3.658577	-20.065000	19.599951
4.658577	-20.065000	23.547869
5.658577	-20.065000	29.263428
6.658577	-20.065000	2.370758
7.658577	-20.065000	0.993579
8.658577	-20.065000	0.639823
9.658577	-20.065000	17.471502
10.658577	-20.065000	69.343178
11.658577	-20.065000	19.008444
12.658577	-20.065000	16.528915
13.658577	-20.065000	15.617846
14.658577	-20.065000	15.283482
15.658577	-20.065000	17.828896
16.658577	-20.065000	22.631512
17.658577	-20.065000	21.245098
18.658577	-20.065000	24.751938
19.658577	-20.065000	37.604122
20.658577	-20.065000	40.893814
21.658577	-20.065000	26.154627
22.658577	-20.065000	15.276062
23.658577	-20.065000	0.639823
24.658577	-20.065000	0.639823
-39.341423	-19.065000	18.554396
-38.341423	-19.065000	9.001313
-37.341423	-19.065000	11.999311
-36.341423	-19.065000	18.265060
-35.341423	-19.065000	16.343605
-34.341423	-19.065000	16.188766
-33.341423	-19.065000	12.894721
-32.341423	-19.065000	2.418052
-31.341423	-19.065000	38.431698
-30.341423	-19.065000	38.634464
-29.341423	-19.065000	17.418221
-28.341423	-19.065000	15.824350
-27.341423	-19.065000	15.405313
-26.341423	-19.065000	13.730778
-25.341423	-19.065000	21.520277
-24.341423	-19.065000	22.369823
-23.341423	-19.065000	20.432861
-22.341423	-19.065000	18.662117
-21.341423	-19.065000	13.161866
-20.341423	-19.065000	18.670080
-19.341423	-19.065000	24.276369
-18.341423	-19.065000	17.361984
-17.341423	-19.065000	36.676235
-16.341423	-19.065000	37.452843
-15.341423	-19.065000	37.345615
-14.341423	-19.065000	35.732746
-13.341423	-19.065000	38.304131
-12.341423	-19.065000	33.042503
-11.341423	-19.065000	31.618835
-10.341423	-19.065000	17.847883
-9.341423	-19.065000	14.944182
-8.341423	-19.065000	14.060087
-7.341423	-19.065000	14.937155
-6.341423	-19.065000	15.989212
-5.341423	-19.065000	17.570263
-4.341423	-19.065000	16.148314
-3.341423	-19.065000	195.064499
-2.341423	-19.065000	20.200346
-1.341423	-19.065000	16.013063
-0.341423	-19.065000	16.159184
0.658577	-19.065000	17.338602
1.658577	-19.065000	16.025888
2.658577	-19.065000	16.510614
3.658577	-19.065000	19.748516
4.658577	-19.065000	21.947210
5.658577	-19.065000	24.995041
6.658577	-19.065000	9.848091
7.658577	-19.065000	27.254387
8.658577	-19.065000	35.317822
9.658577	-19.065000	16.154280
10.658577	-19.065000	83.970207
11.658577	-19.065000	15.910990
12.658577	-19.065000	28.265829
13.658577	-19.065000	19.214781
14.658577	-19.065000	24.399549
15.658577	-19.065000	33.275784
16.658577	-19.065000	21.469296
17.658577	-19.065000	22.341532
18.658577	-19.065000	12.861835
19.658577	-19.065000	22.637871
20.658577	-19.065000	30.312603
21.658577	-19.065000	30.058537
22.658577	-19.065000	1.450271
23.658577	-19.065000	13.772018
24.658577	-19.065000	48.576447
-39.341423	-18.065000	26.070223
-38.341423	-18.065000	19.135164
-37.341423	-18.065000	114.842163
-36.341423	-18.065000	16.618633
-35.341423	-18.065000	23.709511
-34.341423	-18.065000	19.094114
-33.341423	-18.065000	18.884905
-32.341423	-18.065000	27.541664
-31.341423	-18.065000	29.348759
-30.341423	-18.065000	38.558605
-29.341423	-18.065000	41.605854
-28.341423	-18.065000	28.457006
-27.341423	-18.065000	16.711063
-26.341423	-18.065000	42.023724
-25.341423	-18.065000	19.748402
-24.341423	-18.065000	17.678045
-23.341423	-18.065000	18.256624
-22.341423	-18.065000	16.608036
-21.341423	-18.065000	11.568071
-20.341423	-18.065000	17.929996
-19.341423	-18.065000	23.628344
-18.341423	-18.065000	29.091816
-17.341423	-18.065000	40.108376
-16.341423	-18.065000	39.474644
-15.341423	-18.065000	37.044079
-14.341423	-18.065000	37.414322
-13.341423	-18.065000	35.288361
-12.341423	-18.065000	40.107224
-11.341423	-18.065000	20.419098
-10.341423	-18.065000	17.273144
-9.341423	-18.065000	161.333054
-8.341423	-18.065000	15.679310
-7.341423	-18.065000	16.348223
-6.341423	-18.065000	17.141003
-5.341423	-18.065000	33.621243
-4.341423	-18.065000	21.916773
-3.341423	-18.065000	41.815685
-2.341423	-18.065000	14.934546
-1.341423	-18.065000	14.520158
-0.341423	-18.065000	15.502191
0.658577	-18.065000	20.827316
1.658577	-18.065000	18.237295
2.658577	-18.065000	18.863232
3.658577	-18.065000	20.010324
4.658577	-18.065000	17.989653
5.658577	-18.065000	17.856665
6.658577	-18.065000	39.091202
7.658577	-18.065000	38.826103
8.658577	-18.065000	37.121498
9.658577	-18.065000	40.928883
10.658577	-18.065000	39.057808
11.658577	-18.065000	37.375973
12.658577	-18.065000	34.702682
13.658577	-18.065000	32.169544
14.658577	-18.065000	20.923748
15.658577	-18.065000	19.600603
16.658577	-18.065000	20.653727
17.658577	-18.065000	16.917866
18.658577	-18.065000	16.507570
19.658577	-18.065000	18.870672
20.658577	-18.065000	16.137115
21.658577	-18.065000	36.262573
22.658577	-18.065000	29.941885
23.658577	-18.065000	24.229212
24.658577	-18.065000	35.533028
-39.341423	-17.065000	66.570404
-38.341423	-17.065000	26.890736
-37.341423	-17.065000	36.182171
-36.341423	-17.065000	23.312206
-35.341423	-17.065000	18.046185
-34.341423	-17.065000	5.647291
-33.341423	-17.065000	12.063869
-32.341423	-17.065000	14.601776
-31.341423	-17.065000	14.730849
-30.341423	-17.065000	40.918156
-29.341423	-17.065000	43.100948
-28.341423	-17.065000	23.657688
-27.341423	-17.065000	19.186529
-26.341423	-17.065000	18.234331
-25.341423	-17.065000	24.067675
-24.341423	-17.065000	17.064335
-23.341423	-17.065000	18.647379
-22.341423	-17.065000	21.584366
-21.341423	-17.065000	27.345720
-20.341423	-17.065000	30.964003
-19.341423	-17.065000	39.997379
-18.341423	-17.065000	34.736103
-17.341423	-17.065000	39.075294
-16.341423	-17.065000	38.985622
-15.341423	-17.065000	36.031406
-14.341423	-17.065000	35.864277
-13.341423	-17.065000	38.875454
-12.341423	-17.065000	41.598190
-11.341423	-17.065000	26.061956
-10.341423	-17.065000	16.498772
-9.341423	-17.065000	16.273352
-8.341423	-17.065000	24.940443
-7.341423	-17.065000	31.011461
-6.341423	-17.065000	40.434238
-5.341423	-17.065000	32.633877
-4.341423	-17.065000	30.236305
-3.341423	-17.065000	13.374888
-2.341423	-17.065000	14.930581
-1.341423	-17.065000	32.412685
-0.341423	-17.065000	18.629200
0.658577	-17.065000	19.679991
1.658577	-17.065000	19.793133
2.658577	-17.065000	19.350689
3.658577	-17.065000	17.437048
4.658577	-17.065000	19.878759
5.658577	-17.065000	10.460587
6.658577	-17.065000	20.742990
7.658577	-17.065000	29.395115
8.658577	-17.065000	38.029182
9.658577	-17.065000	40.791080
10.658577	-17.065000	41.943554
11.658577	-17.065000	41.268921
12.658577	-17.065000	38.657303
13.658577	-17.065000	29.522360
14.658577	-17.065000	17.383408
15.658577	-17.065000	29.570000
16.658577	-17.065000	30.903160
17.658577	-17.065000	27.367146
18.658577	-17.065000	71.750984
19.658577	-17.065000	21.253233
20.658577	-17.065000	31.877108
21.658577	-17.065000	34.067329
22.658577	-17.065000	37.026073
23.658577	-17.065000	13.668997
24.658577	-17.065000	31.728199
-39.341423	-16.065000	18.728523
-38.341423	-16.065000	37.287338
-37.341423	-16.065000	39.145065
-36.341423	-16.065000	38.637520
-35.341423	-16.065000	31.564983
-34.341423	-16.065000	37.243702
-33.341423	-16.065000	34.806103
-32.341423	-16.065000	36.190865
-31.341423	-16.065000	40.922909
-30.341423	-16.065000	40.853554
-29.341423	-16.065000	18.427172
-28.341423	-16.065000	18.746103
-27.341423	-16.065000	25.334240
-26.341423	-16.065000	42.241924
-25.341423	-16.065000	19.702793
-24.341423	-16.065000	22.991035
-23.341423	-16.065000	20.728235
-22.341423	-16.065000	18.789478
-21.341423	-16.065000	20.656343
-20.341423	-16.065000	27.613329
-19.341423	-16.065000	12.742023
-18.341423	-16.065000	10.923798
-17.341423	-16.065000	30.319382
-16.341423	-16.065000	32.581078
-15.341423	-16.065000	38.382965
-14.341423	-16.065000	36.150856
-13.341423	-16.065000	37.502213
-12.341423	-16.065000	33.746929
-11.341423	-16.065000	24.124769
-10.341423	-16.065000	19.108242
-9.341423	-16.065000	23.139391
-8.341423	-16.065000	15.585869
-7.341423	-16.065000	12.714294
-6.341423	-16.065000	19.763159
-5.341423	-16.065000	33.835094
-4.341423	-16.065000	19.983866
-3.341423	-16.065000	15.423390
-2.341423	-16.065000	18.006294
-1.341423	-16.065000	22.460575
-0.341423	-16.065000	26.229740
0.658577	-16.065000	22.521864
1.658577	-16.065000	20.133287
2.658577	-16.065000	25.680056
3.658577	-16.065000	26.096834
4.658577	-16.065000	20.944075
5.658577	-16.065000	13.942908
6.658577	-16.065000	17.620573
7.658577	-16.065000	41.696598
8.658577	-16.065000	42.130821
9.658577	-16.065000	17.768030
10.658577	-16.065000	40.978188
11.658577	-16.065000	38.093834
12.658577	-16.065000	27.512697
13.658577	-16.065000	20.213524
14.658577	-16.065000	20.115540
15.658577	-16.065000	31.832716
16.658577	-16.065000	38.010715
17.658577	-16.065000	24.745335
18.658577	-16.065000	29.875801
19.658577	-16.065000	20.216076
20.658577	-16.065000	30.125006
21.658577	-16.065000	16.815086
22.658577	-16.065000	29.524384
23.658577	-16.065000	20.156504
24.658577	-16.065000	29.271309
-39.341423	-15.065000	18.348604
-38.341423	-15.065000	10.924620
-37.341423	-15.065000	34.232864
-36.341423	-15.065000	36.166710
-35.341423	-15.065000	34.769516
-34.341423	-15.065000	36.321270
-33.341423	-15.065000	34.630623
-32.341423	-15.065000	33.397396
-31.341423	-15.065000	36.517796
-30.341423	-15.065000	40.154179
-29.341423	-15.065000	24.574364
-28.341423	-15.065000	20.304953
-27.341423	-15.065000	41.331139
-26.341423	-15.065000	25.877972
-25.341423	-15.065000	20.293337
-24.341423	-15.065000	42.874439
-23.341423	-15.065000	17.651810
-22.341423	-15.065000	12.843939
-21.341423	-15.065000	20.792391
-20.341423	-15.065000	22.200041
-19.341423	-15.065000	8.132029
-18.341423	-15.065000	32.486267
-17.341423	-15.065000	37.989449
-16.341423	-15.065000	40.107517
-15.341423	-15.065000	39.660061
-14.341423	-15.065000	39.367188
-13.341423	-15.065000	40.474899
-12.341423	-15.065000	35.409851
-11.341423	-15.065000	21.678431
-10.341423	-15.065000	15.983634
-9.341423	-15.065000	13.326145
-8.341423	-15.065000	10.649086
-7.341423	-15.065000	11.230252
-6.341423	-15.065000	19.123808
-5.341423	-15.065000	17.607759
-4.341423	-15.065000	15.427294
-3.341423	-15.065000	14.443516
-2.341423	-15.065000	14.603225
-1.341423	-15.065000	16.684151
-0.341423	-15.065000	21.115076
0.658577	-15.065000	21.508135
1.658577	-15.065000	19.597496
2.658577	-15.065000	17.552647
3.658577	-15.065000	17.855480
4.658577	-15.065000	18.520641
5.658577	-15.065000	33.273888
6.658577	-15.065000	38.840778
7.658577	-15.065000	40.541107
8.658577	-15.065000	41.241863
9.658577	-15.065000	42.328629
10.658577	-15.065000	42.021946
11.658577	-15.065000	29.661427
12.658577	-15.065000	29.497198
13.658577	-15.065000	13.497612
14.658577	-15.065000	21.788057
15.658577	-15.065000	32.898117
16.658577	-15.065000	22.754471
17.658577	-15.065000	19.837894
18.658577	-15.065000	18.763731
19.658577	-15.065000	21.456188
20.658577	-15.065000	21.226501
21.658577	-15.065000	15.307957
22.658577	-15.065000	24.679432
23.658577	-15.065000	26.339630
24.658577	-15.065000	35.666874
-39.341423	-14.065000	17.904999
-38.341423	-14.065000	38.588730
-37.341423	-14.065000	36.520077
-36.341423	-14.065000	36.004818
-35.341423	-14.065000	35.230255
-34.341423	-14.065000	35.761982
-33.341423	-14.065000	34.813194
-32.341423	-14.065000	35.681652
-31.341423	-14.065000	35.430534
-30.341423	-14.065000	38.246052
-29.341423	-14.065000	20.632149
-28.341423	-14.065000	20.347273
-27.341423	-14.065000	41.074200
-26.341423	-14.065000	30.800632
-25.341423	-14.065000	16.297623
-24.341423	-14.065000	17.911949
-23.341423	-14.065000	21.496208
-22.341423	-14.065000	17.793861
-21.341423	-14.065000	29.791492
-20.341423	-14.065000	28.389938
-19.341423	-14.065000	0.639823
-18.341423	-14.065000	35.260441
-17.341423	-14.065000	28.195179
-16.341423	-14.065000	41.365948
-15.341423	-14.065000	31.875582
-14.341423	-14.065000	38.522911
-13.341423	-14.065000	32.950207
-12.341423	-14.065000	35.082138
-11.341423	-14.065000	20.521866
-10.341423	-14.065000	12.674947
-9.341423	-14.065000	14.163553
-8.341423	-14.065000	14.029993
-7.341423	-14.065000	16.937468
-6.341423	-14.065000	11.994184
-5.341423	-14.065000	16.891190
-4.341423	-14.065000	16.126345
-3.341423	-14.065000	17.842054
-2.341423	-14.065000	9.618251
-1.341423	-14.065000	12.687356
-0.341423	-14.065000	15.700319
0.658577	-14.065000	19.209053
1.658577	-14.065000	19.027493
2.658577	-14.065000	15.336703
3.658577	-14.065000	23.507435
4.658577	-14.065000	20.159647
5.658577	-14.065000	18.030146
6.658577	-14.065000	36.164448
7.658577	-14.065000	40.424595
8.658577	-14.065000	11.651315
9.658577	-14.065000	39.468098
10.658577	-14.065000	37.591820
11.658577	-14.065000	23.038769
12.658577	-14.065000	27.135017
13.658577	-14.065000	28.923285
14.658577	-14.065000	18.599262
15.658577	-14.065000	7.098837
16.658577	-14.065000	7.250096
17.658577	-14.065000	9.816646
18.658577	-14.065000	18.567415
19.658577	-14.065000	18.028339
20.658577	-14.065000	17.072348
21.658577	-14.065000	17.980812
22.658577	-14.065000	15.461777
23.658577	-14.065000	15.158489
24.658577	-14.065000	14.177475
-39.341423	-13.065000	37.882030
-38.341423	-13.065000	36.117565
-37.341423	-13.065000	35.086063
-36.341423	-13.065000	34.209816
-35.341423	-13.065000	34.920033
-34.341423	-13.065000	33.164734
-33.341423	-13.065000	34.129295
-32.341423	-13.065000	35.029934
-31.341423	-13.065000	36.292526
-30.341423	-13.065000	39.092091
-29.341423	-13.065000	39.858463
-28.341423	-13.065000	43.592312
-27.341423	-13.065000	34.819691
-26.341423	-13.065000	26.378441
-25.341423	-13.065000	20.354021
-24.341423	-13.065000	23.266111
-23.341423	-13.065000	16.308886
-22.341423	-13.065000	42.851166
-21.341423	-13.065000	23.079599
-20.341423	-13.065000	17.821001
-19.341423	-13.065000	16.026468
-18.341423	-13.065000	19.406982
-17.341423	-13.065000	30.141270
-16.341423	-13.065000	22.727419
-15.341423	-13.065000	22.113564
-14.341423	-13.065000	21.308081
-13.341423	-13.065000	42.586327
-12.341423	-13.065000	19.960682
-11.341423	-13.065000	11.559185
-10.341423	-13.065000	9.373230
-9.341423	-13.065000	14.348842
-8.341423	-13.065000	12.928528
-7.341423	-13.065000	14.860072
-6.341423	-13.065000	16.323221
-5.341423	-13.065000	12.614734
-4.341423	-13.065000	21.411001
-3.341423	-13.065000	12.528825
-2.341423	-13.065000	17.064777
-1.341423	-13.065000	22.734398
-0.341423	-13.065000	23.016354
0.658577	-13.065000	18.551342
1.658577	-13.065000	16.576567
2.658577	-13.065000	16.696049
3.658577	-13.065000	19.576866
4.658577	-13.065000	18.104342
5.658577	-13.065000	21.128880
6.658577	-13.065000	22.687531
7.658577	-13.065000	38.846889
8.658577	-13.065000	37.003101
9.658577	-13.065000	35.260670
10.658577	-13.065000	21.617743
11.658577	-13.065000	12.121460
12.658577	-13.065000	20.438259
13.658577	-13.065000	21.265078
14.658577	-13.065000	21.258614
15.658577	-13.065000	41.736561
16.658577	-13.065000	33.748901
17.658577	-13.065000	31.955521
18.658577	-13.065000	15.229547
19.658577	-13.065000	18.461308
20.658577	-13.065000	19.706942
21.658577	-13.065000	13.885134
22.658577	-13.065000	17.791500
23.658577	-13.065000	17.163891
24.658577	-13.065000	21.144014
-39.341423	-12.065000	38.850891
-38.341423	-12.065000	33.987999
-37.341423	-12.065000	35.790852
-36.341423	-12.065000	35.058861
-35.341423	-12.065000	34.922794
-34.341423	-12.065000	34.058498
-33.341423	-12.065000	36.573502
-32.341423	-12.065000	35.432938
-31.341423	-12.065000	35.382088
-30.341423	-12.065000	36.300098
-29.341423	-12.065000	35.071926
-28.341423	-12.065000	38.236053
-27.341423	-12.065000	27.694168
-26.341423	-12.065000	42.811501
-25.341423	-12.065000	31.665115
-24.341423	-12.065000	42.575676
-23.341423	-12.065000	24.233318
-22.341423	-12.065000	43.845512
-21.341423	-12.065000	17.834341
-20.341423	-12.065000	22.553446
-19.341423	-12.065000	19.300583
-18.341423	-12.065000	20.825081
-17.341423	-12.065000	35.128700
-16.341423	-12.065000	11.061092
-15.341423	-12.065000	13.978504
-14.341423	-12.065000	4.748032
-13.341423	-12.065000	24.563038
-12.341423	-12.065000	15.545928
-11.341423	-12.065000	12.186529
-10.341423	-12.065000	7.440419
-9.341423	-12.065000	14.900517
-8.341423	-12.065000	14.654115
-7.341423	-12.065000	21.315361
-6.341423	-12.065000	16.592920
-5.341423	-12.065000	22.744873
-4.341423	-12.065000	18.664970
-3.341423	-12.065000	19.622103
-2.341423	-12.065000	19.393591
-1.341423	-12.065000	17.996719
-0.341423	-12.065000	19.884533
0.658577	-12.065000	19.121935
1.658577	-12.065000	11.001260
2.658577	-12.065000	20.133646
3.658577	-12.065000	21.938290
4.658577	-12.065000	23.954821
5.658577	-12.065000	19.143991
6.658577	-12.065000	18.149132
7.658577	-12.065000	27.327343
8.658577	-12.065000	19.648026
9.658577	-12.065000	22.155432
10.658577	-12.065000	39.455235
11.658577	-12.065000	1.252894
12.658577	-12.065000	20.338964
13.658577	-12.065000	75.512215
14.658577	-12.065000	17.004044
15.658577	-12.065000	20.054110
16.658577	-12.065000	41.524239
17.658577	-12.065000	18.115273
18.658577	-12.065000	17.845240
19.658577	-12.065000	16.149851
20.658577	-12.065000	18.804617
21.658577	-12.065000	18.982992
22.658577	-12.065000	20.225203
23.658577	-12.065000	18.679874
24.658577	-12.065000	17.318478
-39.341423	-11.065000	39.468246
-38.341423	-11.065000	34.108711
-37.341423	-11.065000	34.920162
-36.341423	-11.065000	38.641815
-35.341423	-11.065000	193.944733
-34.341423	-11.065000	37.295635
-33.341423	-11.065000	35.055447
-32.341423	-11.065000	36.236523
-31.341423	-11.065000	36.282024
-30.341423	-11.065000	36.717262
-29.341423	-11.065000	33.734535
-28.341423	-11.065000	36.769642
-27.341423	-11.065000	35.693195
-26.341423	-11.065000	33.500114
-25.341423	-11.065000	33.575626
-24.341423	-11.065000	24.643566
-23.341423	-11.065000	26.555061
-22.341423	-11.065000	18.615089
-21.341423	-11.065000	25.708246
-20.341423	-11.065000	18.827656
-19.341423	-11.065000	19.253107
-18.341423	-11.065000	15.617851
-17.341423	-11.065000	15.778722
-16.341423	-11.065000	13.485818
-15.341423	-11.065000	18.931509
-14.341423	-11.065000	26.725523
-13.341423	-11.065000	17.525782
-12.341423	-11.065000	15.453924
-11.341423	-11.065000	13.842211
-10.341423	-11.065000	14.229129
-9.341423	-11.065000	12.723289
-8.341423	-11.065000	17.521387
-7.341423	-11.065000	20.627401
-6.341423	-11.065000	20.608982
-5.341423	-11.065000	17.322678
-4.341423	-11.065000	15.930605
-3.341423	-11.065000	19.107397
-2.341423	-11.065000	15.163571
-1.341423	-11.065000	21.690384
-0.341423	-11.065000	20.986658
0.658577	-11.065000	28.651941
1.658577	-11.065000	21.380770
2.658577	-11.065000	13.842808
3.658577	-11.065000	45.389538
4.658577	-11.065000	23.931244
5.658577	-11.065000	20.026831
6.658577	-11.065000	26.472599
7.658577	-11.065000	14.696652
8.658577	-11.065000	24.986979
9.658577	-11.065000	2.744856
10.658577	-11.065000	0.741656
11.658577	-11.065000	0.639823
12.658577	-11.065000	19.830927
13.658577	-11.065000	19.998165
14.658577	-11.065000	16.364386
15.658577	-11.065000	19.930960
16.658577	-11.065000	22.031349
17.658577	-11.065000	16.505781
18.658577	-11.065000	22.456400
19.658577	-11.065000	23.632805
20.658577	-11.065000	37.790058
21.658577	-11.065000	60.321854
22.658577	-11.065000	22.402176
23.658577	-11.065000	16.259882
24.658577	-11.065000	20.014889
-39.341423	-10.065000	35.494530
-38.341423	-10.065000	37.098633
-37.341423	-10.065000	33.658356
-36.341423	-10.065000	36.282177
-35.341423	-10.065000	35.746376
-34.341423	-10.065000	36.499180
-33.341423	-10.065000	35.547661
-32.341423	-10.065000	34.285477
-31.341423	-10.065000	34.867378
-30.341423	-10.065000	34.209171
-29.341423	-10.065000	34.426342
-28.341423	-10.065000	34.462421
-27.341423	-10.065000	35.851849
-26.341423	-10.065000	35.335434
-25.341423	-10.065000	35.214104
-24.341423	-10.065000	25.161127
-23.341423	-10.065000	17.186848
-22.341423	-10.065000	9.685104
-21.341423	-10.065000	26.144255
-20.341423	-10.065000	27.068195
-19.341423	-10.065000	13.855131
-18.341423	-10.065000	13.662311
-17.341423	-10.065000	596.567749
-16.341423	-10.065000	10.874464
-15.341423	-10.065000	19.968399
-14.341423	-10.065000	35.273735
-13.341423	-10.065000	23.549831
-12.341423	-10.065000	43.486633
-11.341423	-10.065000	41.123043
-10.341423	-10.065000	34.864914
-9.341423	-10.065000	1.537294
-8.341423	-10.065000	25.034433
-7.341423	-10.065000	21.142677
-6.341423	-10.065000	19.080507
-5.341423	-10.065000	25.620239
-4.341423	-10.065000	18.389385
-3.341423	-10.065000	30.217438
-2.341423	-10.065000	21.125963
-1.341423	-10.065000	19.981529
-0.341423	-10.065000	22.962790
0.658577	-10.065000	22.068579
1.658577	-10.065000	17.656713
2.658577	-10.065000	15.842348
3.658577	-10.065000	65.990646
4.658577	-10.065000	27.162834
5.658577	-10.065000	16.979170
6.658577	-10.065000	30.682287
7.658577	-10.065000	31.444311
8.658577	-10.065000	37.193581
9.658577	-10.065000	13.063049
10.658577	-10.065000	22.884134
11.658577	-10.065000	25.766830
12.658577	-10.065000	17.750555
13.658577	-10.065000	20.410572
14.658577	-10.065000	26.323833
15.658577	-10.065000	20.812132
16.658577	-10.065000	17.756588
17.658577	-10.065000	24.009876
18.658577	-10.065000	25.290874
19.658577	-10.065000	0.639823
20.658577	-10.065000	22.354671
21.658577	-10.065000	20.113272
22.658577	-10.065000	29.626514
23.658577	-10.065000	23.100161
24.658577	-10.065000	14.898195
-39.341423	-9.065000	35.692135
-38.341423	-9.065000	36.760582
-37.341423	-9.065000	35.109924
-36.341423	-9.065000	34.708454
-35.341423	-9.065000	33.801876
-34.341423	-9.065000	33.263565
-33.341423	-9.065000	35.534676
-32.341423	-9.065000	33.607330
-31.341423	-9.065000	33.431202
-30.341423	-9.065000	35.463356
-29.341423	-9.065000	35.134510
-28.341423	-9.065000	35.046356
-27.341423	-9.065000	36.487507
-26.341423	-9.065000	27.813103
-25.341423	-9.065000	28.028238
-24.341423	-9.065000	15.939862
-23.341423	-9.065000	4.797136
-22.341423	-9.065000	1.874205
-21.341423	-9.065000	24.928318
-20.341423	-9.065000	16.210947
-19.341423	-9.065000	18.800203
-18.341423	-9.065000	9.547200
-17.341423	-9.065000	16.511019
-16.341423	-9.065000	27.646641
-15.341423	-9.065000	379.819611
-14.341423	-9.065000	41.690697
-13.341423	-9.065000	38.672867
-12.341423	-9.065000	191.876266
-11.341423	-9.065000	36.003418
-10.341423	-9.065000	35.638115
-9.341423	-9.065000	35.939331
-8.341423	-9.065000	32.658905
-7.341423	-9.065000	21.998425
-6.341423	-9.065000	25.972851
-5.341423	-9.065000	21.735676
-4.341423	-9.065000	19.090088
-3.341423	-9.065000	13.193327
-2.341423	-9.065000	24.313848
-1.341423	-9.065000	16.774715
-0.341423	-9.065000	22.589468
0.658577	-9.065000	25.769295
1.658577	-9.065000	23.764071
2.658577	-9.065000	22.346966
3.658577	-9.065000	25.740269
4.658577	-9.065000	19.921883
5.658577	-9.065000	41.003834
6.658577	-9.065000	32.658264
7.658577	-9.065000	40.938499
8.658577	-9.065000	7.923434
9.658577	-9.065000	2.385973
10.658577	-9.065000	0.639823
11.658577	-9.065000	11.683840
12.658577	-9.065000	22.335649
13.658577	-9.065000	23.502213
14.658577	-9.065000	22.919863
15.658577	-9.065000	22.239943
16.658577	-9.065000	18.185793
17.658577	-9.065000	16.629702
18.658577	-9.065000	69.795921
19.658577	-9.065000	24.075300
20.658577	-9.065000	59.355827
21.658577	-9.065000	62.302826
22.658577	-9.065000	24.756111
23.658577	-9.065000	23.413019
24.658577	-9.065000	24.589714
-39.341423	-8.065000	35.222172
-38.341423	-8.065000	37.340649
-37.341423	-8.065000	35.634365
-36.341423	-8.065000	35.687283
-35.341423	-8.065000	34.503670
-34.341423	-8.065000	34.218777
-33.341423	-8.065000	34.516483
-32.341423	-8.065000	32.473095
-31.341423	-8.065000	38.367390
-30.341423	-8.065000	36.547325
-29.341423	-8.065000	37.102741
-28.341423	-8.065000	36.882984
-27.341423	-8.065000	36.963451
-26.341423	-8.065000	36.424603
-25.341423	-8.065000	32.016537
-24.341423	-8.065000	20.393883
-23.341423	-8.065000	13.769524
-22.341423	-8.065000	24.797462
-21.341423	-8.065000	29.682888
-20.341423	-8.065000	74.521568
-19.341423	-8.065000	18.347576
-18.341423	-8.065000	21.656626
-17.341423	-8.065000	21.722422
-16.341423	-8.065000	37.901268
-15.341423	-8.065000	18.102169
-14.341423	-8.065000	30.277718
-13.341423	-8.065000	39.764889
-12.341423	-8.065000	19.742704
-11.341423	-8.065000	42.929955
-10.341423	-8.065000	40.438614
-9.341423	-8.065000	37.338299
-8.341423	-8.065000	38.371433
-7.341423	-8.065000	67.795105
-6.341423	-8.065000	30.635433
-5.341423	-8.065000	24.824842
-4.341423	-8.065000	36.274845
-3.341423	-8.065000	20.360500
-2.341423	-8.065000	10.510141
-1.341423	-8.065000	17.279787
-0.341423	-8.065000	21.875744
0.658577	-8.065000	24.174604
1.658577	-8.065000	19.044327
2.658577	-8.065000	21.164085
3.658577	-8.065000	20.748400
4.658577	-8.065000	19.428282
5.658577	-8.065000	33.786865
6.658577	-8.065000	39.761528
7.658577	-8.065000	39.972675
8.658577	-8.065000	9.267322
9.658577	-8.065000	0.639823
10.658577	-8.065000	3.277946
11.658577	-8.065000	0.639823
12.658577	-8.065000	16.223354
13.658577	-8.065000	22.353151
14.658577	-8.065000	18.258266
15.658577	-8.065000	25.337318
16.658577	-8.065000	16.153059
17.658577	-8.065000	17.541739
18.658577	-8.065000	69.576675
19.658577	-8.065000	68.426979
20.658577	-8.065000	22.109030
21.658577	-8.065000	69.075577
22.658577	-8.065000	57.806602
23.658577	-8.065000	20.240068
24.658577	-8.065000	1.445646
-39.341423	-7.065000	34.989685
-38.341423	-7.065000	38.029243
-37.341423	-7.065000	34.313671
-36.341423	-7.065000	34.759140
-35.341423	-7.065000	32.261787
-34.341423	-7.065000	33.666431
-33.341423	-7.065000	33.665691
-32.341423	-7.065000	35.025715
-31.341423	-7.065000	34.957340
-30.341423	-7.065000	37.150188
-29.341423	-7.065000	37.225281
-28.341423	-7.065000	38.067249
-27.341423	-7.065000	29.802269
-26.341423	-7.065000	37.823273
-25.341423	-7.065000	35.925007
-24.341423	-7.065000	16.169216
-23.341423	-7.065000	17.489161
-22.341423	-7.065000	11.440400
-21.341423	-7.065000	48.063808
-20.341423	-7.065000	21.425022
-19.341423	-7.065000	31.240526
-18.341423	-7.065000	31.841389
-17.341423	-7.065000	37.117344
-16.341423	-7.065000	40.163990
-15.341423	-7.065000	18.621140
-14.341423	-7.065000	41.642433
-13.341423	-7.065000	40.427048
-12.341423	-7.065000	21.915344
-11.341423	-7.065000	40.622566
-10.341423	-7.065000	40.570217
-9.341423	-7.065000	35.730984
-8.341423	-7.065000	35.212006
-7.341423	-7.065000	26.178415
-6.341423	-7.065000	14.278934
-5.341423	-7.065000	33.913197
-4.341423	-7.065000	23.793507
-3.341423	-7.065000	28.582924
-2.341423	-7.065000	38.107433
-1.341423	-7.065000	5.717110
-0.341423	-7.065000	2.303181
0.658577	-7.065000	7.850241
1.658577	-7.065000	46.257477
2.658577	-7.065000	16.002716
3.658577	-7.065000	19.450144
4.658577	-7.065000	14.769177
5.658577	-7.065000	32.436348
6.658577	-7.065000	39.902630
7.658577	-7.065000	22.322058
8.658577	-7.065000	13.797297
9.658577	-7.065000	10.876779
10.658577	-7.065000	24.411278
11.658577	-7.065000	9.193747
12.658577	-7.065000	24.288578
13.658577	-7.065000	34.365269
14.658577	-7.065000	2.814332
15.658577	-7.065000	28.354868
16.658577	-7.065000	18.549059
17.658577	-7.065000	18.963844
18.658577	-7.065000	15.296954
19.658577	-7.065000	0.639823
20.658577	-7.065000	17.133038
21.658577	-7.065000	16.081186
22.658577	-7.065000	15.875934
23.658577	-7.065000	0.639823
24.658577	-7.065000	22.246161
-39.341423	-6.065000	37.033871
-38.341423	-6.065000	39.447739
-37.341423	-6.065000	34.578281
-36.341423	-6.065000	33.933819
-35.341423	-6.065000	35.366982
-34.341423	-6.065000	35.228802
-33.341423	-6.065000	34.479839
-32.341423	-6.065000	35.570232
-31.341423	-6.065000	37.513763
-30.341423	-6.065000	36.996475
-29.341423	-6.065000	38.465652
-28.341423	-6.065000	36.251759
-27.341423	-6.065000	36.339958
-26.341423	-6.065000	35.134785
-25.341423	-6.065000	37.687286
-24.341423	-6.065000	34.555916
-23.341423	-6.065000	17.045696
-22.341423	-6.065000	21.559580
-21.341423	-6.065000	31.196293
-20.341423	-6.065000	17.032372
-19.341423	-6.065000	15.018426
-18.341423	-6.065000	3.350312
-17.341423	-6.065000	24.846617
-16.341423	-6.065000	39.198074
-15.341423	-6.065000	38.051300
-14.341423	-6.065000	38.277779
-13.341423	-6.065000	42.047165
-12.341423	-6.065000	41.622509
-11.341423	-6.065000	216.471603
-10.341423	-6.065000	37.560310
-9.341423	-6.065000	37.964306
-8.341423	-6.065000	36.178677
-7.341423	-6.065000	33.895496
-6.341423	-6.065000	35.796898
-5.341423	-6.065000	20.656507
-4.341423	-6.065000	0.668170
-3.341423	-6.065000	12.274198
-2.341423	-6.065000	16.321074
-1.341423	-6.065000	140.734360
-0.341423	-6.065000	0.639823
0.658577	-6.065000	0.639823
1.658577	-6.065000	1.664154
2.658577	-6.065000	29.349367
3.658577	-6.065000	18.850910
4.658577	-6.065000	15.180748
5.658577	-6.065000	17.368195
6.658577	-6.065000	17.147970
7.658577	-6.065000	23.220228
8.658577	-6.065000	5.849903
9.658577	-6.065000	23.025721
10.658577	-6.065000	21.884163
11.658577	-6.065000	25.776672
12.658577	-6.065000	36.387779
13.658577	-6.065000	15.601337
14.658577	-6.065000	17.934921
15.658577	-6.065000	16.263500
16.658577	-6.065000	20.697601
17.658577	-6.065000	23.005058
18.658577	-6.065000	19.994671
19.658577	-6.065000	20.661091
20.658577	-6.065000	27.370405
21.658577	-6.065000	16.812897
22.658577	-6.065000	17.516060
23.658577	-6.065000	14.949739
24.658577	-6.065000	16.600534
-39.341423	-5.065000	28.194036
-38.341423	-5.065000	38.601917
-37.341423	-5.065000	39.101357
-36.341423	-5.065000	38.677216
-35.341423	-5.065000	38.836220
-34.341423	-5.065000	34.942463
-33.341423	-5.065000	35.624435
-32.341423	-5.065000	37.036777
-31.341423	-5.065000	34.992924
-30.341423	-5.065000	37.451962
-29.341423	-5.065000	34.636272
-28.341423	-5.065000	28.220869
-27.341423	-5.065000	21.491673
-26.341423	-5.065000	27.695131
-25.341423	-5.065000	21.420496
-24.341423	-5.065000	38.792290
-23.341423	-5.065000	35.557915
-22.341423	-5.065000	29.643705
-21.341423	-5.065000	27.861893
-20.341423	-5.065000	10.837216
-19.341423	-5.065000	4.726232
-18.341423	-5.065000	0.639823
-17.341423	-5.065000	30.302427
-16.341423	-5.065000	38.137737
-15.341423	-5.065000	38.393944
-14.341423	-5.065000	39.368973
-13.341423	-5.065000	39.645542
-12.341423	-5.065000	38.419094
-11.341423	-5.065000	36.310371
-10.341423	-5.065000	39.594177
-9.341423	-5.065000	36.483589
-8.341423	-5.065000	38.455978
-7.341423	-5.065000	40.515999
-6.341423	-5.065000	36.636787
-5.341423	-5.065000	34.293438
-4.341423	-5.065000	5.158979
-3.341423	-5.065000	3.016092
-2.341423	-5.065000	45.694698
-1.341423	-5.065000	26.296293
-0.341423	-5.065000	32.680885
0.658577	-5.065000	19.765230
1.658577	-5.065000	27.951689
2.658577	-5.065000	30.332201
3.658577	-5.065000	5.975272
4.658577	-5.065000	26.669893
5.658577	-5.065000	19.080408
6.658577	-5.065000	20.776979
7.658577	-5.065000	19.020325
8.658577	-5.065000	12.325932
9.658577	-5.065000	30.380941
10.658577	-5.065000	19.587139
11.658577	-5.065000	24.510944
12.658577	-5.065000	32.752571
13.658577	-5.065000	2.448219
14.658577	-5.065000	7.678165
15.658577	-5.065000	19.595016
16.658577	-5.065000	21.784491
17.658577	-5.065000	20.191223
18.658577	-5.065000	18.582975
19.658577	-5.065000	23.160446
20.658577	-5.065000	22.990885
21.658577	-5.065000	28.099375
22.658577	-5.065000	20.290255
23.658577	-5.065000	15.910425
24.658577	-5.065000	14.931931
-39.341423	-4.065000	3.193119
-38.341423	-4.065000	31.782394
-37.341423	-4.065000	15.222645
-36.341423	-4.065000	14.451482
-35.341423	-4.065000	20.310112
-34.341423	-4.065000	40.520275
-33.341423	-4.065000	35.887356
-32.341423	-4.065000	33.625160
-31.341423	-4.065000	31.954681
-30.341423	-4.065000	30.923365
-29.341423	-4.065000	33.011612
-28.341423	-4.065000	38.201622
-27.341423	-4.065000	23.860476
-26.341423	-4.065000	25.260136
-25.341423	-4.065000	28.647430
-24.341423	-4.065000	33.589390
-23.341423	-4.065000	36.648159
-22.341423	-4.065000	40.628979
-21.341423	-4.065000	22.649708
-20.341423	-4.065000	18.634281
-19.341423	-4.065000	36.589359
-18.341423	-4.065000	33.604404
-17.341423	-4.065000	33.234646
-16.341423	-4.065000	32.430359
-15.341423	-4.065000	37.067390
-14.341423	-4.065000	37.002403
-13.341423	-4.065000	35.744926
-12.341423	-4.065000	41.180641
-11.341423	-4.065000	16.594259
-10.341423	-4.065000	164.957901
-9.341423	-4.065000	19.559074
-8.341423	-4.065000	42.743687
-7.341423	-4.065000	40.583752
-6.341423	-4.065000	19.644852
-5.341423	-4.065000	36.241947
-4.341423	-4.065000	13.586406
-3.341423	-4.065000	101.353844
-2.341423	-4.065000	34.688564
-1.341423	-4.065000	33.967957
-0.341423	-4.065000	37.112236
0.658577	-4.065000	22.976799
1.658577	-4.065000	15.744660
2.658577	-4.065000	0.639823
3.658577	-4.065000	0.639823
4.658577	-4.065000	21.013182
5.658577	-4.065000	23.638584
6.658577	-4.065000	24.830683
7.658577	-4.065000	32.503902
8.658577	-4.065000	35.255497
9.658577	-4.065000	33.209583
10.658577	-4.065000	27.801535
11.658577	-4.065000	17.341261
12.658577	-4.065000	31.384998
13.658577	-4.065000	35.237053
14.658577	-4.065000	38.647076
15.658577	-4.065000	36.787579
16.658577	-4.065000	30.070557
17.658577	-4.065000	14.564343
18.658577	-4.065000	19.906712
19.658577	-4.065000	16.276812
20.658577	-4.065000	17.700331
21.658577	-4.065000	19.207285
22.658577	-4.065000	17.308624
23.658577	-4.065000	18.778202
24.658577	-4.065000	11.758084
-39.341423	-3.065000	0.639823
-38.341423	-3.065000	8.416165
-37.341423	-3.065000	18.884056
-36.341423	-3.065000	15.683587
-35.341423	-3.065000	83.111435
-34.341423	-3.065000	42.896080
-33.341423	-3.065000	28.356400
-32.341423	-3.065000	17.879625
-31.341423	-3.065000	30.321283
-30.341423	-3.065000	32.985771
-29.341423	-3.065000	22.781010
-28.341423	-3.065000	0.639823
-27.341423	-3.065000	19.502056
-26.341423	-3.065000	2.635104
-25.341423	-3.065000	127.725868
-24.341423	-3.065000	42.146450
-23.341423	-3.065000	39.618580
-22.341423	-3.065000	43.035961
-21.341423	-3.065000	21.364067
-20.341423	-3.065000	41.766335
-19.341423	-3.065000	20.097872
-18.341423	-3.065000	18.864002
-17.341423	-3.065000	27.153740
-16.341423	-3.065000	29.208298
-15.341423	-3.065000	33.913155
-14.341423	-3.065000	35.510464
-13.341423	-3.065000	41.597645
-12.341423	-3.065000	255.375427
-11.341423	-3.065000	14.172830
-10.341423	-3.065000	15.957075
-9.341423	-3.065000	13.242505
-8.341423	-3.065000	17.262939
-7.341423	-3.065000	15.387066
-6.341423	-3.065000	13.917309
-5.341423	-3.065000	22.603727
-4.341423	-3.065000	24.705196
-3.341423	-3.065000	20.802315
-2.341423	-3.065000	38.766670
-1.341423	-3.065000	39.144382
-0.341423	-3.065000	36.991318
0.658577	-3.065000	35.182777
1.658577	-3.065000	22.358244
2.658577	-3.065000	14.057173
3.658577	-3.065000	34.163326
4.658577	-3.065000	26.103313
5.658577	-3.065000	22.229074
6.658577	-3.065000	17.989330
7.658577	-3.065000	23.656746
8.658577	-3.065000	35.427746
9.658577	-3.065000	23.328148
10.658577	-3.065000	24.033430
11.658577	-3.065000	25.564905
12.658577	-3.065000	34.945324
13.658577	-3.065000	37.120899
14.658577	-3.065000	33.012608
15.658577	-3.065000	32.386749
16.658577	-3.065000	18.115362
17.658577	-3.065000	14.844092
18.658577	-3.065000	19.359407
19.658577	-3.065000	26.324842
20.658577	-3.065000	17.846024
21.658577	-3.065000	15.977335
22.658577	-3.065000	7.781616
23.658577	-3.065000	13.674568
24.658577	-3.065000	10.960574
-39.341423	-2.065000	0.780981
-38.341423	-2.065000	35.310516
-37.341423	-2.065000	24.023413
-36.341423	-2.065000	15.831867
-35.341423	-2.065000	33.308022
-34.341423	-2.065000	23.152815
-33.341423	-2.065000	27.935135
-32.341423	-2.065000	2.058521
-31.341423	-2.065000	42.456989
-30.341423	-2.065000	38.467060
-29.341423	-2.065000	36.240788
-28.341423	-2.065000	2.515949
-27.341423	-2.065000	34.988392
-26.341423	-2.065000	41.097477
-25.341423	-2.065000	40.429356
-24.341423	-2.065000	41.834698
-23.341423	-2.065000	1.180977
-22.341423	-2.065000	34.077885
-21.341423	-2.065000	24.212200
-20.341423	-2.065000	21.815510
-19.341423	-2.065000	21.657686
-18.341423	-2.065000	40.163750
-17.341423	-2.065000	16.161633
-16.341423	-2.065000	19.578169
-15.341423	-2.065000	36.800037
-14.341423	-2.065000	36.868240
-13.341423	-2.065000	41.072464
-12.341423	-2.065000	44.034653
-11.341423	-2.065000	21.082302
-10.341423	-2.065000	36.956509
-9.341423	-2.065000	66.357460
-8.341423	-2.065000	16.801949
-7.341423	-2.065000	13.228215
-6.341423	-2.065000	11.804988
-5.341423	-2.065000	17.431141
-4.341423	-2.065000	18.725042
-3.341423	-2.065000	21.228870
-2.341423	-2.065000	41.534889
-1.341423	-2.065000	39.922092
-0.341423	-2.065000	37.668415
0.658577	-2.065000	36.786533
1.658577	-2.065000	36.704155
2.658577	-2.065000	24.165655
3.658577	-2.065000	33.867165
4.658577	-2.065000	19.428223
5.658577	-2.065000	19.053411
6.658577	-2.065000	4.609161
7.658577	-2.065000	24.242142
8.658577	-2.065000	20.962803
9.658577	-2.065000	24.125416
10.658577	-2.065000	16.142473
11.658577	-2.065000	12.990860
12.658577	-2.065000	21.136717
13.658577	-2.065000	38.644386
14.658577	-2.065000	35.831940
15.658577	-2.065000	3.365574
16.658577	-2.065000	16.012630
17.658577	-2.065000	11.902943
18.658577	-2.065000	28.602798
19.658577	-2.065000	27.953325
20.658577	-2.065000	15.479486
21.658577	-2.065000	0.639823
22.658577	-2.065000	10.227310
23.658577	-2.065000	14.997117
24.658577	-2.065000	17.934465
-39.341423	-1.065000	35.048740
-38.341423	-1.065000	26.555880
-37.341423	-1.065000	23.467733
-36.341423	-1.065000	17.131716
-35.341423	-1.065000	16.995388
-34.341423	-1.065000	21.249550
-33.341423	-1.065000	22.917665
-32.341423	-1.065000	21.559223
-31.341423	-1.065000	17.362759
-30.341423	-1.065000	18.023699
-29.341423	-1.065000	10.676924
-28.341423	-1.065000	22.529844
-27.341423	-1.065000	6.823435
-26.341423	-1.065000	17.873344
-25.341423	-1.065000	41.224915
-24.341423	-1.065000	35.236290
-23.341423	-1.065000	38.401917
-22.341423	-1.065000	37.203854
-21.341423	-1.065000	37.701805
-20.341423	-1.065000	24.225092
-19.341423	-1.065000	43.039391
-18.341423	-1.065000	22.482462
-17.341423	-1.065000	20.369080
-16.341423	-1.065000	19.349123
-15.341423	-1.065000	29.815172
-14.341423	-1.065000	36.464966
-13.341423	-1.065000	40.942589
-12.341423	-1.065000	43.250179
-11.341423	-1.065000	30.198847
-10.341423	-1.065000	17.028048
-9.341423	-1.065000	15.754951
-8.341423	-1.065000	19.283199
-7.341423	-1.065000	13.691121
-6.341423	-1.065000	11.828118
-5.341423	-1.065000	39.735294
-4.341423	-1.065000	16.355284
-3.341423	-1.065000	27.103771
-2.341423	-1.065000	41.134850
-1.341423	-1.065000	36.704899
-0.341423	-1.065000	39.303638
0.658577	-1.065000	41.614628
1.658577	-1.065000	32.120739
2.658577	-1.065000	32.990845
3.658577	-1.065000	13.728172
4.658577	-1.065000	21.524200
5.658577	-1.065000	19.735052
6.658577	-1.065000	28.833185
7.658577	-1.065000	30.846603
8.658577	-1.065000	22.713873
9.658577	-1.065000	21.294003
10.658577	-1.065000	14.450881
11.658577	-1.065000	39.126682
12.658577	-1.065000	29.615898
13.658577	-1.065000	42.547695
14.658577	-1.065000	37.807709
15.658577	-1.065000	29.797010
16.658577	-1.065000	16.945040
17.658577	-1.065000	14.732142
18.658577	-1.065000	17.518587
19.658577	-1.065000	17.593525
20.658577	-1.065000	39.568733
21.658577	-1.065000	40.589516
22.658577	-1.065000	11.768023
23.658577	-1.065000	19.193930
24.658577	-1.065000	21.212723
-39.341423	-0.065000	116.144600
-38.341423	-0.065000	22.292753
-37.341423	-0.065000	20.582405
-36.341423	-0.065000	32.949921
-35.341423	-0.065000	32.271355
-34.341423	-0.065000	18.825373
-33.341423	-0.065000	17.732950
-32.341423	-0.065000	17.585402
-31.341423	-0.065000	30.700048
-30.341423	-0.065000	33.150150
-29.341423	-0.065000	17.137331
-28.341423	-0.065000	0.639823
-27.341423	-0.065000	23.257833
-26.341423	-0.065000	21.589231
-25.341423	-0.065000	38.588497
-24.341423	-0.065000	40.037910
-23.341423	-0.065000	34.041031
-22.341423	-0.065000	31.140667
-21.341423	-0.065000	23.793617
-20.341423	-0.065000	32.288216
-19.341423	-0.065000	32.553535
-18.341423	-0.065000	22.619720
-17.341423	-0.065000	21.680738
-16.341423	-0.065000	19.921894
-15.341423	-0.065000	27.364006
-14.341423	-0.065000	38.856464
-13.341423	-0.065000	39.654049
-12.341423	-0.065000	38.947567
-11.341423	-0.065000	39.126026
-10.341423	-0.065000	22.539621
-9.341423	-0.065000	15.982413
-8.341423	-0.065000	14.645972
-7.341423	-0.065000	15.054686
-6.341423	-0.065000	21.280222
-5.341423	-0.065000	38.407711
-4.341423	-0.065000	22.697842
-3.341423	-0.065000	23.336580
-2.341423	-0.065000	39.654449
-1.341423	-0.065000	37.930317
-0.341423	-0.065000	39.426056
0.658577	-0.065000	38.933006
1.658577	-0.065000	37.299488
2.658577	-0.065000	17.691544
3.658577	-0.065000	21.179934
4.658577	-0.065000	21.760283
5.658577	-0.065000	20.977253
6.658577	-0.065000	39.832993
7.658577	-0.065000	39.190952
8.658577	-0.065000	39.067245
9.658577	-0.065000	31.914616
10.658577	-0.065000	30.866177
11.658577	-0.065000	34.252232
12.658577	-0.065000	35.757961
13.658577	-0.065000	23.418339
14.658577	-0.065000	23.487995
15.658577	-0.065000	42.898060
16.658577	-0.065000	35.673119
17.658577	-0.065000	17.289257
18.658577	-0.065000	23.236170
19.658577	-0.065000	34.924465
20.658577	-0.065000	39.434982
21.658577	-0.065000	40.036835
22.658577	-0.065000	28.151628
23.658577	-0.065000	16.013746
24.658577	-0.065000	12.620288
-39.341423	0.935000	122.408226
-38.341423	0.935000	18.471157
-37.341423	0.935000	29.469584
-36.341423	0.935000	89.282410
-35.341423	0.935000	19.034752
-34.341423	0.935000	17.414471
-33.341423	0.935000	20.416454
-32.341423	0.935000	15.948023
-31.341423	0.935000	17.727100
-30.341423	0.935000	14.519261
-29.341423	0.935000	4.669631
-28.341423	0.935000	1.867175
-27.341423	0.935000	11.755755
-26.341423	0.935000	29.662924
-25.341423	0.935000	38.273148
-24.341423	0.935000	40.727455
-23.341423	0.935000	21.436850
-22.341423	0.935000	37.590549
-21.341423	0.935000	36.994934
-20.341423	0.935000	37.313038
-19.341423	0.935000	25.479259
-18.341423	0.935000	17.487608
-17.341423	0.935000	20.460981
-16.341423	0.935000	17.548098
-15.341423	0.935000	31.305531
-14.341423	0.935000	38.763657
-13.341423	0.935000	40.216957
-12.341423	0.935000	36.735485
-11.341423	0.935000	38.230877
-10.341423	0.935000	38.673744
-9.341423	0.935000	18.092878
-8.341423	0.935000	16.568388
-7.341423	0.935000	14.500774
-6.341423	0.935000	21.419022
-5.341423	0.935000	36.086201
-4.341423	0.935000	36.903893
-3.341423	0.935000	36.497540
-2.341423	0.935000	25.530819
-1.341423	0.935000	38.707233
-0.341423	0.935000	38.289349
0.658577	0.935000	39.318748
1.658577	0.935000	31.322220
2.658577	0.935000	17.711229
3.658577	0.935000	18.763781
4.658577	0.935000	18.861603
5.658577	0.935000	31.554298
6.658577	0.935000	24.948389
7.658577	0.935000	22.095503
8.658577	0.935000	29.105244
9.658577	0.935000	37.858547
10.658577	0.935000	33.913498
11.658577	0.935000	29.375648
12.658577	0.935000	31.506029
13.658577	0.935000	25.759853
14.658577	0.935000	28.244446
15.658577	0.935000	32.357235
16.658577	0.935000	31.724518
17.658577	0.935000	26.898880
18.658577	0.935000	36.688698
19.658577	0.935000	41.213871
20.658577	0.935000	41.034195
21.658577	0.935000	40.944271
22.658577	0.935000	39.351990
23.658577	0.935000	22.340935
24.658577	0.935000	12.514989
-39.341423	1.935000	22.384359
-38.341423	1.935000	43.309299
-37.341423	1.935000	23.319063
-36.341423	1.935000	21.608961
-35.341423	1.935000	26.944094
-34.341423	1.935000	13.811127
-33.341423	1.935000	22.607784
-32.341423	1.935000	33.329082
-31.341423	1.935000	13.772889
-30.341423	1.935000	15.857102
-29.341423	1.935000	36.942822
-28.341423	1.935000	37.150032
-27.341423	1.935000	23.287617
-26.341423	1.935000	40.025631
-25.341423	1.935000	28.581957
-24.341423	1.935000	12.461424
-23.341423	1.935000	12.865340
-22.341423	1.935000	40.711758
-21.341423	1.935000	38.992931
-20.341423	1.935000	39.616192
-19.341423	1.935000	23.575203
-18.341423	1.935000	12.274147
-17.341423	1.935000	5.911077
-16.341423	1.935000	112.659477
-15.341423	1.935000	24.256907
-14.341423	1.935000	33.273079
-13.341423	1.935000	36.443996
-12.341423	1.935000	662.770996
-11.341423	1.935000	40.382633
-10.341423	1.935000	40.998962
-9.341423	1.935000	40.865341
-8.341423	1.935000	39.904774
-7.341423	1.935000	128.656677
-6.341423	1.935000	25.532742
-5.341423	1.935000	38.508041
-4.341423	1.935000	37.659664
-3.341423	1.935000	37.648026
-2.341423	1.935000	41.359962
-1.341423	1.935000	38.831913
-0.341423	1.935000	40.649166
0.658577	1.935000	34.922367
1.658577	1.935000	14.004597
2.658577	1.935000	20.099535
3.658577	1.935000	15.299060
4.658577	1.935000	20.549528
5.658577	1.935000	34.311157
6.658577	1.935000	36.795170
7.658577	1.935000	37.013870
8.658577	1.935000	37.266479
9.658577	1.935000	39.512447
10.658577	1.935000	40.167130
11.658577	1.935000	41.029198
12.658577	1.935000	39.822498
13.658577	1.935000	28.722866
14.658577	1.935000	26.525341
15.658577	1.935000	23.769346
16.658577	1.935000	76.177551
17.658577	1.935000	25.769011
18.658577	1.935000	30.013670
19.658577	1.935000	29.990288
20.658577	1.935000	39.275509
21.658577	1.935000	42.766521
22.658577	1.935000	37.317272
23.658577	1.935000	30.519283
24.658577	1.935000	36.305557
-39.341423	2.935000	34.124065
-38.341423	2.935000	18.177992
-37.341423	2.935000	29.635208
-36.341423	2.935000	24.367113
-35.341423	2.935000	19.142336
-34.341423	2.935000	22.700245
-33.341423	2.935000	20.114996
-32.341423	2.935000	42.290764
-31.341423	2.935000	11.876485
-30.341423	2.935000	29.535757
-29.341423	2.935000	26.489298
-28.341423	2.935000	33.292843
-27.341423	2.935000	33.693199
-26.341423	2.935000	33.947403
-25.341423	2.935000	30.640961
-24.341423	2.935000	37.977707
-23.341423	2.935000	38.309025
-22.341423	2.935000	9.873792
-21.341423	2.935000	41.344681
-20.341423	2.935000	35.060204
-19.341423	2.935000	30.146336
-18.341423	2.935000	89.318214
-17.341423	2.935000	35.170456
-16.341423	2.935000	2.552718
-15.341423	2.935000	33.002274
-14.341423	2.935000	29.124622
-13.341423	2.935000	33.163357
-12.341423	2.935000	35.477280
-11.341423	2.935000	34.728508
-10.341423	2.935000	36.862366
-9.341423	2.935000	40.874481
-8.341423	2.935000	22.715544
-7.341423	2.935000	23.874657
-6.341423	2.935000	17.459587
-5.341423	2.935000	41.262043
-4.341423	2.935000	38.361225
-3.341423	2.935000	37.789864
-2.341423	2.935000	30.110176
-1.341423	2.935000	37.598869
-0.341423	2.935000	39.719521
0.658577	2.935000	41.009624
1.658577	2.935000	19.652533
2.658577	2.935000	17.008554
3.658577	2.935000	21.484879
4.658577	2.935000	18.479660
5.658577	2.935000	24.220379
6.658577	2.935000	12.521688
7.658577	2.935000	35.955914
8.658577	2.935000	38.309444
9.658577	2.935000	41.960373
10.658577	2.935000	39.406986
11.658577	2.935000	1.691890
12.658577	2.935000	38.022289
13.658577	2.935000	27.695158
14.658577	2.935000	35.474468
15.658577	2.935000	19.381540
16.658577	2.935000	15.799195
17.658577	2.935000	42.972015
18.658577	2.935000	32.771622
19.658577	2.935000	40.135231
20.658577	2.935000	28.038706
21.658577	2.935000	40.556995
22.658577	2.935000	41.234085
23.658577	2.935000	37.781116
24.658577	2.935000	16.662472
-39.341423	3.935000	25.283445
-38.341423	3.935000	28.284472
-37.341423	3.935000	33.099514
-36.341423	3.935000	19.022903
-35.341423	3.935000	16.336752
-34.341423	3.935000	3.947791
-33.341423	3.935000	24.177698
-32.341423	3.935000	21.397509
-31.341423	3.935000	20.543606
-30.341423	3.935000	25.813026
-29.341423	3.935000	23.935310
-28.341423	3.935000	26.755230
-27.341423	3.935000	27.507286
-26.341423	3.935000	22.576775
-25.341423	3.935000	32.886112
-24.341423	3.935000	41.854046
-23.341423	3.935000	0.639823
-22.341423	3.935000	11.087788
-21.341423	3.935000	41.363571
-20.341423	3.935000	35.458981
-19.341423	3.935000	36.297920
-18.341423	3.935000	38.856163
-17.341423	3.935000	39.308525
-16.341423	3.935000	22.939793
-15.341423	3.935000	32.712196
-14.341423	3.935000	19.365021
-13.341423	3.935000	43.117226
-12.341423	3.935000	16.337292
-11.341423	3.935000	85.233574
-10.341423	3.935000	27.299572
-9.341423	3.935000	17.636663
-8.341423	3.935000	21.906744
-7.341423	3.935000	19.528593
-6.341423	3.935000	31.480886
-5.341423	3.935000	33.184658
-4.341423	3.935000	35.654865
-3.341423	3.935000	39.416683
-2.341423	3.935000	39.313240
-1.341423	3.935000	38.274216
-0.341423	3.935000	37.303944
0.658577	3.935000	38.551552
1.658577	3.935000	31.548302
2.658577	3.935000	23.315289
3.658577	3.935000	17.876780
4.658577	3.935000	18.806223
5.658577	3.935000	22.476244
6.658577	3.935000	30.502298
7.658577	3.935000	38.961613
8.658577	3.935000	36.683311
9.658577	3.935000	38.842583
10.658577	3.935000	179.862961
11.658577	3.935000	17.266144
12.658577	3.935000	14.062806
13.658577	3.935000	22.249855
14.658577	3.935000	35.545059
15.658577	3.935000	14.706889
16.658577	3.935000	17.063580
17.658577	3.935000	42.760365
18.658577	3.935000	37.987354
19.658577	3.935000	38.868034
20.658577	3.935000	33.152973
21.658577	3.935000	34.629333
22.658577	3.935000	38.079510
23.658577	3.935000	20.662720
24.658577	3.935000	4.887574
-39.341423	4.935000	37.180107
-38.341423	4.935000	23.426598
-37.341423	4.935000	32.156204
-36.341423	4.935000	36.170761
-35.341423	4.935000	36.534077
-34.341423	4.935000	38.544239
-33.341423	4.935000	10.501619
-32.341423	4.935000	23.738165
-31.341423	4.935000	22.727444
-30.341423	4.935000	21.649281
-29.341423	4.935000	27.667814
-28.341423	4.935000	27.116186
-27.341423	4.935000	25.784216
-26.341423	4.935000	14.727040
-25.341423	4.935000	37.683350
-24.341423	4.935000	127.644150
-23.341423	4.935000	12.704074
-22.341423	4.935000	16.806950
-21.341423	4.935000	20.666790
-20.341423	4.935000	16.720751
-19.341423	4.935000	39.248890
-18.341423	4.935000	39.148643
-17.341423	4.935000	38.667065
-16.341423	4.935000	40.912666
-15.341423	4.935000	34.016239
-14.341423	4.935000	32.884312
-13.341423	4.935000	1.754017
-12.341423	4.935000	23.620583
-11.341423	4.935000	23.467136
-10.341423	4.935000	14.232675
-9.341423	4.935000	24.741348
-8.341423	4.935000	17.795876
-7.341423	4.935000	19.581696
-6.341423	4.935000	22.345036
-5.341423	4.935000	26.741505
-4.341423	4.935000	34.306385
-3.341423	4.935000	39.672134
-2.341423	4.935000	37.003685
-1.341423	4.935000	38.641991
-0.341423	4.935000	36.366867
0.658577	4.935000	37.446396
1.658577	4.935000	39.737877
2.658577	4.935000	31.161726
3.658577	4.935000	16.674559
4.658577	4.935000	21.365347
5.658577	4.935000	26.616732
6.658577	4.935000	21.401999
7.658577	4.935000	21.989445
8.658577	4.935000	34.716991
9.658577	4.935000	36.547367
10.658577	4.935000	42.514210
11.658577	4.935000	22.877106
12.658577	4.935000	40.167744
13.658577	4.935000	19.254192
14.658577	4.935000	27.030909
15.658577	4.935000	42.113335
16.658577	4.935000	24.376577
17.658577	4.935000	27.827766
18.658577	4.935000	36.148224
19.658577	4.935000	38.229630
20.658577	4.935000	22.622486
21.658577	4.935000	38.180798
22.658577	4.935000	35.633865
23.658577	4.935000	38.944710
24.658577	4.935000	7.901990
-39.341423	5.935000	35.825546
-38.341423	5.935000	39.615948
-37.341423	5.935000	37.447704
-36.341423	5.935000	36.873390
-35.341423	5.935000	37.742249
-34.341423	5.935000	37.146545
-33.341423	5.935000	39.403416
-32.341423	5.935000	38.610138
-31.341423	5.935000	20.572786
-30.341423	5.935000	16.813547
-29.341423	5.935000	16.867750
-28.341423	5.935000	28.369421
-27.341423	5.935000	14.529021
-26.341423	5.935000	25.526760
-25.341423	5.935000	35.628910
-24.341423	5.935000	43.443836
-23.341423	5.935000	17.147078
-22.341423	5.935000	17.730507
-21.341423	5.935000	18.221584
-20.341423	5.935000	43.274635
-19.341423	5.935000	37.198792
-18.341423	5.935000	39.296673
-17.341423	5.935000	39.073357
-16.341423	5.935000	40.431129
-15.341423	5.935000	33.991413
-14.341423	5.935000	33.635292
-13.341423	5.935000	31.150690
-12.341423	5.935000	40.358078
-11.341423	5.935000	25.437283
-10.341423	5.935000	34.939625
-9.341423	5.935000	1.902459
-8.341423	5.935000	25.848450
-7.341423	5.935000	14.086696
-6.341423	5.935000	20.702175
-5.341423	5.935000	13.812938
-4.341423	5.935000	15.274384
-3.341423	5.935000	38.627701
-2.341423	5.935000	38.783073
-1.341423	5.935000	37.855488
-0.341423	5.935000	36.668819
0.658577	5.935000	38.287304
1.658577	5.935000	38.616436
2.658577	5.935000	19.575529
3.658577	5.935000	20.761042
4.658577	5.935000	19.882896
5.658577	5.935000	20.914690
6.658577	5.935000	14.610152
7.658577	5.935000	14.209705
8.658577	5.935000	15.207439
9.658577	5.935000	28.503046
10.658577	5.935000	35.734051
11.658577	5.935000	29.286266
12.658577	5.935000	14.697641
13.658577	5.935000	17.723301
14.658577	5.935000	25.010277
15.658577	5.935000	33.339237
16.658577	5.935000	36.370495
17.658577	5.935000	40.056412
18.658577	5.935000	37.728306
19.658577	5.935000	37.949158
20.658577	5.935000	30.877014
21.658577	5.935000	35.398537
22.658577	5.935000	39.555233
23.658577	5.935000	40.104504
24.658577	5.935000	21.887705
-39.341423	6.935000	36.411404
-38.341423	6.935000	36.847511
-37.341423	6.935000	36.301487
-36.341423	6.935000	34.629124
-35.341423	6.935000	35.154877
-34.341423	6.935000	37.001575
-33.341423	6.935000	38.381985
-32.341423	6.935000	37.010178
-31.341423	6.935000	22.032358
-30.341423	6.935000	40.191689
-29.341423	6.935000	31.060501
-28.341423	6.935000	24.157333
-27.341423	6.935000	15.463675
-26.341423	6.935000	18.405870
-25.341423	6.935000	33.389416
-24.341423	6.935000	36.199745
-23.341423	6.935000	17.233959
-22.341423	6.935000	16.607546
-21.341423	6.935000	16.936428
-20.341423	6.935000	40.089382
-19.341423	6.935000	39.380848
-18.341423	6.935000	36.751789
-17.341423	6.935000	39.877644
-16.341423	6.935000	41.068428
-15.341423	6.935000	33.936375
-14.341423	6.935000	38.839001
-13.341423	6.935000	41.743797
-12.341423	6.935000	21.110258
-11.341423	6.935000	19.409494
-10.341423	6.935000	16.463278
-9.341423	6.935000	15.583991
-8.341423	6.935000	27.684004
-7.341423	6.935000	17.017483
-6.341423	6.935000	15.921080
-5.341423	6.935000	19.489658
-4.341423	6.935000	23.812628
-3.341423	6.935000	21.536306
-2.341423	6.935000	39.470638
-1.341423	6.935000	36.441368
-0.341423	6.935000	36.877338
0.658577	6.935000	37.840290
1.658577	6.935000	38.577049
2.658577	6.935000	27.391850
3.658577	6.935000	21.716856
4.658577	6.935000	23.872425
5.658577	6.935000	18.233463
6.658577	6.935000	21.681030
7.658577	6.935000	119.656357
8.658577	6.935000	14.664558
9.658577	6.935000	15.993063
10.658577	6.935000	32.327374
11.658577	6.935000	30.271395
12.658577	6.935000	31.459919
13.658577	6.935000	26.511816
14.658577	6.935000	24.470242
15.658577	6.935000	24.988291
16.658577	6.935000	31.148201
17.658577	6.935000	37.653389
18.658577	6.935000	39.444065
19.658577	6.935000	24.533926
20.658577	6.935000	32.396130
21.658577	6.935000	35.787624
22.658577	6.935000	35.814167
23.658577	6.935000	37.058323
24.658577	6.935000	40.147282
-39.341423	7.935000	33.765862
-38.341423	7.935000	35.627205
-37.341423	7.935000	34.320610
-36.341423	7.935000	34.061497
-35.341423	7.935000	35.058414
-34.341423	7.935000	38.397999
-33.341423	7.935000	38.240120
-32.341423	7.935000	39.914089
-31.341423	7.935000	41.868198
-30.341423	7.935000	26.000122
-29.341423	7.935000	31.008366
-28.341423	7.935000	21.180336
-27.341423	7.935000	16.209286
-26.341423	7.935000	18.509705
-25.341423	7.935000	19.710426
-24.341423	7.935000	16.829332
-23.341423	7.935000	15.436101
-22.341423	7.935000	14.024915
-21.341423	7.935000	12.741040
-20.341423	7.935000	18.508104
-19.341423	7.935000	39.332390
-18.341423	7.935000	27.644575
-17.341423	7.935000	38.497383
-16.341423	7.935000	31.148680
-15.341423	7.935000	36.377983
-14.341423	7.935000	40.459381
-13.341423	7.935000	1044.005249
-12.341423	7.935000	39.382675
-11.341423	7.935000	18.870445
-10.341423	7.935000	13.752862
-9.341423	7.935000	19.945206
-8.341423	7.935000	17.489634
-7.341423	7.935000	13.354216
-6.341423	7.935000	20.016293
-5.341423	7.935000	22.180923
-4.341423	7.935000	24.997566
-3.341423	7.935000	16.322706
-2.341423	7.935000	36.632095
-1.341423	7.935000	38.140106
-0.341423	7.935000	39.480511
0.658577	7.935000	39.202930
1.658577	7.935000	25.928808
2.658577	7.935000	29.907381
3.658577	7.935000	17.429501
4.658577	7.935000	19.424839
5.658577	7.935000	19.707392
6.658577	7.935000	29.127411
7.658577	7.935000	17.514263
8.658577	7.935000	19.804111
9.658577	7.935000	19.388802
10.658577	7.935000	27.486052
11.658577	7.935000	25.785097
12.658577	7.935000	273.477844
13.658577	7.935000	29.764088
14.658577	7.935000	39.493134
15.658577	7.935000	29.547537
16.658577	7.935000	21.896042
17.658577	7.935000	23.789833
18.658577	7.935000	34.766281
19.658577	7.935000	38.155186
20.658577	7.935000	35.698647
21.658577	7.935000	32.981087
22.658577	7.935000	31.517551
23.658577	7.935000	24.995544
24.658577	7.935000	40.184643
-39.341423	8.935000	33.796730
-38.341423	8.935000	34.496368
-37.341423	8.935000	33.222019
-36.341423	8.935000	36.067074
-35.341423	8.935000	33.681721
-34.341423	8.935000	36.158661
-33.341423	8.935000	38.915482
-32.341423	8.935000	36.985546
-31.341423	8.935000	39.614689
-30.341423	8.935000	24.406496
-29.341423	8.935000	26.094481
-28.341423	8.935000	32.066967
-27.341423	8.935000	17.929661
-26.341423	8.935000	18.235710
-25.341423	8.935000	19.559990
-24.341423	8.935000	14.397051
-23.341423	8.935000	17.021542
-22.341423	8.935000	11.038152
-21.341423	8.935000	15.034069
-20.341423	8.935000	15.901345
-19.341423	8.935000	19.464748
-18.341423	8.935000	24.648630
-17.341423	8.935000	40.068317
-16.341423	8.935000	38.054176
-15.341423	8.935000	36.664642
-14.341423	8.935000	41.393112
-13.341423	8.935000	26.564392
-12.341423	8.935000	39.498825
-11.341423	8.935000	11.753999
-10.341423	8.935000	12.483612
-9.341423	8.935000	12.669011
-8.341423	8.935000	11.750987
-7.341423	8.935000	14.544734
-6.341423	8.935000	26.348652
-5.341423	8.935000	15.878668
-4.341423	8.935000	13.219050
-3.341423	8.935000	22.157223
-2.341423	8.935000	33.730076
-1.341423	8.935000	40.627445
-0.341423	8.935000	39.484180
0.658577	8.935000	37.867256
1.658577	8.935000	23.789900
2.658577	8.935000	26.055262
3.658577	8.935000	36.402470
4.658577	8.935000	20.540588
5.658577	8.935000	22.777683
6.658577	8.935000	68.519241
7.658577	8.935000	16.050642
8.658577	8.935000	25.675119
9.658577	8.935000	19.465725
10.658577	8.935000	16.510782
11.658577	8.935000	20.943081
12.658577	8.935000	23.382723
13.658577	8.935000	28.168402
14.658577	8.935000	31.514477
15.658577	8.935000	35.505173
16.658577	8.935000	36.741879
17.658577	8.935000	29.998732
18.658577	8.935000	9.545530
19.658577	8.935000	0.639823
20.658577	8.935000	25.635742
21.658577	8.935000	22.238049
22.658577	8.935000	22.319502
23.658577	8.935000	49.220814
24.658577	8.935000	28.507694
-39.341423	9.935000	34.500488
-38.341423	9.935000	34.249073
-37.341423	9.935000	34.602146
-36.341423	9.935000	32.876656
-35.341423	9.935000	35.752884
-34.341423	9.935000	35.580482
-33.341423	9.935000	37.481232
-32.341423	9.935000	36.248875
-31.341423	9.935000	37.715630
-30.341423	9.935000	40.058231
-29.341423	9.935000	154.928192
-28.341423	9.935000	33.105145
-27.341423	9.935000	19.980490
-26.341423	9.935000	19.729074
-25.341423	9.935000	19.508705
-24.341423	9.935000	24.935682
-23.341423	9.935000	17.875620
-22.341423	9.935000	16.736073
-21.341423	9.935000	23.635498
-20.341423	9.935000	21.333317
-19.341423	9.935000	23.817682
-18.341423	9.935000	18.355061
-17.341423	9.935000	38.370579
-16.341423	9.935000	34.231216
-15.341423	9.935000	39.131546
-14.341423	9.935000	37.561676
-13.341423	9.935000	33.655373
-12.341423	9.935000	26.013622
-11.341423	9.935000	13.287832
-10.341423	9.935000	15.618402
-9.341423	9.935000	13.816578
-8.341423	9.935000	16.464499
-7.341423	9.935000	15.963782
-6.341423	9.935000	38.098972
-5.341423	9.935000	40.259388
-4.341423	9.935000	70.465378
-3.341423	9.935000	25.633589
-2.341423	9.935000	26.881401
-1.341423	9.935000	34.855068
-0.341423	9.935000	36.202698
0.658577	9.935000	28.555033
1.658577	9.935000	25.149403
2.658577	9.935000	18.691370
3.658577	9.935000	19.575150
4.658577	9.935000	23.028454
5.658577	9.935000	23.272110
6.658577	9.935000	36.537766
7.658577	9.935000	17.117565
8.658577	9.935000	21.813011
9.658577	9.935000	18.581779
10.658577	9.935000	18.895382
11.658577	9.935000	18.385386
12.658577	9.935000	19.335630
13.658577	9.935000	19.394550
14.658577	9.935000	1.982613
15.658577	9.935000	0.639823
16.658577	9.935000	366.464020
17.658577	9.935000	1.077477
18.658577	9.935000	8.989017
19.658577	9.935000	25.098963
20.658577	9.935000	26.628527
21.658577	9.935000	28.646967
22.658577	9.935000	27.117504
23.658577	9.935000	0.639823
24.658577	9.935000	41.295883
-39.341423	10.935000	35.048500
-38.341423	10.935000	35.262337
-37.341423	10.935000	35.159279
-36.341423	10.935000	35.729572
-35.341423	10.935000	35.037003
-34.341423	10.935000	36.188557
-33.341423	10.935000	37.756802
-32.341423	10.935000	38.755970
-31.341423	10.935000	35.425812
-30.341423	10.935000	39.242191
-29.341423	10.935000	38.534676
-28.341423	10.935000	33.483109
-27.341423	10.935000	27.909676
-26.341423	10.935000	18.643919
-25.341423	10.935000	17.127716
-24.341423	10.935000	16.413311
-23.341423	10.935000	44.378613
-22.341423	10.935000	24.972324
-21.341423	10.935000	19.022867
-20.341423	10.935000	30.184225
-19.341423	10.935000	23.750591
-18.341423	10.935000	30.614349
-17.341423	10.935000	30.912514
-16.341423	10.935000	15.528782
-15.341423	10.935000	31.823816
-14.341423	10.935000	35.414783
-13.341423	10.935000	28.631639
-12.341423	10.935000	18.001677
-11.341423	10.935000	13.974652
-10.341423	10.935000	14.899983
-9.341423	10.935000	19.342068
-8.341423	10.935000	17.807806
-7.341423	10.935000	44.647465
-6.341423	10.935000	39.620609
-5.341423	10.935000	39.614643
-4.341423	10.935000	40.839188
-3.341423	10.935000	37.497818
-2.341423	10.935000	18.743271
-1.341423	10.935000	130.556900
-0.341423	10.935000	39.054214
0.658577	10.935000	29.492590
1.658577	10.935000	21.722517
2.658577	10.935000	16.343119
3.658577	10.935000	19.584229
4.658577	10.935000	33.475910
5.658577	10.935000	26.520844
6.658577	10.935000	19.359680
7.658577	10.935000	47.744129
8.658577	10.935000	27.925920
9.658577	10.935000	18.788446
10.658577	10.935000	22.358723
11.658577	10.935000	17.610029
12.658577	10.935000	20.511730
13.658577	10.935000	17.471670
14.658577	10.935000	4.599204
15.658577	10.935000	0.713772
16.658577	10.935000	2595.124023
17.658577	10.935000	0.749265
18.658577	10.935000	2.021863
19.658577	10.935000	0.639823
20.658577	10.935000	35.894630
21.658577	10.935000	28.468742
22.658577	10.935000	40.052841
23.658577	10.935000	13.767881
24.658577	10.935000	26.550785
-39.341423	11.935000	411.568176
-38.341423	11.935000	35.947460
-37.341423	11.935000	37.627735
-36.341423	11.935000	37.014797
-35.341423	11.935000	37.336964
-34.341423	11.935000	37.425961
-33.341423	11.935000	112.714005
-32.341423	11.935000	38.783302
-31.341423	11.935000	35.606358
-30.341423	11.935000	36.822479
-29.341423	11.935000	37.499687
-28.341423	11.935000	35.854084
-27.341423	11.935000	23.133402
-26.341423	11.935000	19.240705
-25.341423	11.935000	10.386483
-24.341423	11.935000	16.135656
-23.341423	11.935000	41.732758
-22.341423	11.935000	22.257029
-21.341423	11.935000	25.010878
-20.341423	11.935000	23.514835
-19.341423	11.935000	25.749949
-18.341423	11.935000	22.001604
-17.341423	11.935000	14.741692
-16.341423	11.935000	17.555723
-15.341423	11.935000	84.009186
-14.341423	11.935000	36.621761
-13.341423	11.935000	28.501055
-12.341423	11.935000	16.565168
-11.341423	11.935000	68.097015
-10.341423	11.935000	4.599266
-9.341423	11.935000	17.281420
-8.341423	11.935000	17.583652
-7.341423	11.935000	15.121051
-6.341423	11.935000	18.137587
-5.341423	11.935000	41.144466
-4.341423	11.935000	40.709099
-3.341423	11.935000	33.768349
-2.341423	11.935000	26.981741
-1.341423	11.935000	29.138773
-0.341423	11.935000	37.161148
0.658577	11.935000	23.538383
1.658577	11.935000	20.028053
2.658577	11.935000	18.130308
3.658577	11.935000	23.543356
4.658577	11.935000	42.750774
5.658577	11.935000	18.729015
6.658577	11.935000	33.925873
7.658577	11.935000	106.683624
8.658577	11.935000	37.982689
9.658577	11.935000	18.356743
10.658577	11.935000	25.782803
11.658577	11.935000	19.941568
12.658577	11.935000	30.004967
13.658577	11.935000	18.960220
14.658577	11.935000	21.034641
15.658577	11.935000	118.570999
16.658577	11.935000	0.639823
17.658577	11.935000	149.458649
18.658577	11.935000	42.468807
19.658577	11.935000	0.639823
20.658577	11.935000	22.820585
21.658577	11.935000	31.785725
22.658577	11.935000	35.232292
23.658577	11.935000	33.740665
24.658577	11.935000	38.291821
-39.341423	12.935000	38.912460
-38.341423	12.935000	36.470165
-37.341423	12.935000	40.979805
-36.341423	12.935000	42.015957
-35.341423	12.935000	38.584019
-34.341423	12.935000	37.846382
-33.341423	12.935000	35.829525
-32.341423	12.935000	40.569016
-31.341423	12.935000	38.836765
-30.341423	12.935000	36.365158
-29.341423	12.935000	37.847736
-28.341423	12.935000	38.442822
-27.341423	12.935000	17.817957
-26.341423	12.935000	11.987006
-25.341423	12.935000	22.628868
-24.341423	12.935000	38.653168
-23.341423	12.935000	30.373306
-22.341423	12.935000	41.934586
-21.341423	12.935000	35.424477
-20.341423	12.935000	17.772411
-19.341423	12.935000	36.882221
-18.341423	12.935000	23.168804
-17.341423	12.935000	13.653904
-16.341423	12.935000	14.546788
-15.341423	12.935000	32.227493
-14.341423	12.935000	29.941088
-13.341423	12.935000	22.138817
-12.341423	12.935000	16.689474
-11.341423	12.935000	14.232143
-10.341423	12.935000	16.283892
-9.341423	12.935000	17.164633
-8.341423	12.935000	19.244467
-7.341423	12.935000	18.618004
-6.341423	12.935000	8.070464
-5.341423	12.935000	26.231936
-4.341423	12.935000	36.581554
-3.341423	12.935000	25.560713
-2.341423	12.935000	18.011288
-1.341423	12.935000	18.978809
-0.341423	12.935000	36.731922
0.658577	12.935000	23.114206
1.658577	12.935000	15.841061
2.658577	12.935000	21.311001
3.658577	12.935000	23.430565
4.658577	12.935000	33.864876
5.658577	12.935000	25.911230
6.658577	12.935000	36.951908
7.658577	12.935000	39.114605
8.658577	12.935000	70.441345
9.658577	12.935000	5.494329
10.658577	12.935000	23.570808
11.658577	12.935000	22.422195
12.658577	12.935000	17.554449
13.658577	12.935000	37.364044
14.658577	12.935000	13.444770
15.658577	12.935000	7.993718
16.658577	12.935000	11.060613
17.658577	12.935000	9.056274
18.658577	12.935000	0.639823
19.658577	12.935000	1.903888
20.658577	12.935000	0.639823
21.658577	12.935000	0.639823
22.658577	12.935000	24.944561
23.658577	12.935000	29.295979
24.658577	12.935000	26.512691
-39.341423	13.935000	38.088017
-38.341423	13.935000	36.016430
-37.341423	13.935000	39.928925
-36.341423	13.935000	37.346046
-35.341423	13.935000	37.451099
-34.341423	13.935000	35.571209
-33.341423	13.935000	37.660740
-32.341423	13.935000	36.691048
-31.341423	13.935000	36.756783
-30.341423	13.935000	39.152836
-29.341423	13.935000	39.150311
-28.341423	13.935000	16.882374
-27.341423	13.935000	15.253822
-26.341423	13.935000	12.968073
-25.341423	13.935000	15.312025
-24.341423	13.935000	39.352009
-23.341423	13.935000	224.043198
-22.341423	13.935000	17.712858
-21.341423	13.935000	36.899494
-20.341423	13.935000	35.047279
-19.341423	13.935000	41.674538
-18.341423	13.935000	40.832443
-17.341423	13.935000	27.042246
-16.341423	13.935000	17.798405
-15.341423	13.935000	30.939018
-14.341423	13.935000	39.171486
-13.341423	13.935000	34.738770
-12.341423	13.935000	18.035877
-11.341423	13.935000	40.887470
-10.341423	13.935000	30.900543
-9.341423	13.935000	28.169603
-8.341423	13.935000	20.743109
-7.341423	13.935000	18.477163
-6.341423	13.935000	40.047203
-5.341423	13.935000	27.345798
-4.341423	13.935000	36.175404
-3.341423	13.935000	31.993814
-2.341423	13.935000	14.304618
-1.341423	13.935000	17.431509
-0.341423	13.935000	37.807190
0.658577	13.935000	24.054529
1.658577	13.935000	15.972939
2.658577	13.935000	21.225868
3.658577	13.935000	28.581802
4.658577	13.935000	93.004135
5.658577	13.935000	13.018497
6.658577	13.935000	39.772907
7.658577	13.935000	40.911133
8.658577	13.935000	41.681892
9.658577	13.935000	20.498678
10.658577	13.935000	18.017534
11.658577	13.935000	15.872396
12.658577	13.935000	21.337490
13.658577	13.935000	12.692358
14.658577	13.935000	2.505887
15.658577	13.935000	922.704956
16.658577	13.935000	63.757305
17.658577	13.935000	21.788363
18.658577	13.935000	0.639823
19.658577	13.935000	0.639823
20.658577	13.935000	1.558252
21.658577	13.935000	27.676174
22.658577	13.935000	2.823550
23.658577	13.935000	2.059731
24.658577	13.935000	0.639823
-39.341423	14.935000	35.418537
-38.341423	14.935000	35.436886
-37.341423	14.935000	35.947430
-36.341423	14.935000	37.352009
-35.341423	14.935000	36.227875
-34.341423	14.935000	33.435226
-33.341423	14.935000	32.170902
-32.341423	14.935000	36.494785
-31.341423	14.935000	33.557518
-30.341423	14.935000	38.046654
-29.341423	14.935000	42.417152
-28.341423	14.935000	15.438334
-27.341423	14.935000	16.335869
-26.341423	14.935000	17.499495
-25.341423	14.935000	16.166368
-24.341423	14.935000	20.822697
-23.341423	14.935000	25.837023
-22.341423	14.935000	19.132671
-21.341423	14.935000	34.126820
-20.341423	14.935000	28.621206
-19.341423	14.935000	37.355907
-18.341423	14.935000	38.889465
-17.341423	14.935000	22.366835
-16.341423	14.935000	39.313087
-15.341423	14.935000	33.049301
-14.341423	14.935000	37.357040
-13.341423	14.935000	39.848667
-12.341423	14.935000	41.401726
-11.341423	14.935000	36.983704
-10.341423	14.935000	36.429554
-9.341423	14.935000	9.592516
-8.341423	14.935000	24.603308
-7.341423	14.935000	32.944668
-6.341423	14.935000	29.298000
-5.341423	14.935000	16.106401
-4.341423	14.935000	19.083559
-3.341423	14.935000	30.084558
-2.341423	14.935000	44.061184
-1.341423	14.935000	30.649601
-0.341423	14.935000	66.283020
0.658577	14.935000	15.900247
1.658577	14.935000	16.276787
2.658577	14.935000	21.512045
3.658577	14.935000	32.368156
4.658577	14.935000	3.823946
5.658577	14.935000	30.398586
6.658577	14.935000	0.639823
7.658577	14.935000	36.638786
8.658577	14.935000	20.980965
9.658577	14.935000	21.683226
10.658577	14.935000	17.520372
11.658577	14.935000	17.187754
12.658577	14.935000	30.204132
13.658577	14.935000	4.392143
14.658577	14.935000	0.762961
15.658577	14.935000	1.649695
16.658577	14.935000	0.690795
17.658577	14.935000	0.639823
18.658577	14.935000	56.461414
19.658577	14.935000	0.639823
20.658577	14.935000	0.818461
21.658577	14.935000	0.639823
22.658577	14.935000	3.577616
23.658577	14.935000	22.150011
24.658577	14.935000	32.526897
-39.341423	15.935000	35.827015
-38.341423	15.935000	36.142784
-37.341423	15.935000	34.736958
-36.341423	15.935000	34.174709
-35.341423	15.935000	36.057957
-34.341423	15.935000	34.897526
-33.341423	15.935000	35.129055
-32.341423	15.935000	35.278931
-31.341423	15.935000	36.483154
-30.341423	15.935000	19.615768
-29.341423	15.935000	29.070967
-28.341423	15.935000	29.869619
-27.341423	15.935000	17.350521
-26.341423	15.935000	15.816632
-25.341423	15.935000	14.325512
-24.341423	15.935000	16.926321
-23.341423	15.935000	5.298223
-22.341423	15.935000	18.111856
-21.341423	15.935000	22.163458
-20.341423	15.935000	22.782293
-19.341423	15.935000	18.333803
-18.341423	15.935000	41.758430
-17.341423	15.935000	41.714954
-16.341423	15.935000	43.147045
-15.341423	15.935000	39.671291
-14.341423	15.935000	38.448856
-13.341423	15.935000	38.197086
-12.341423	15.935000	37.101871
-11.341423	15.935000	38.972347
-10.341423	15.935000	4.504991
-9.341423	15.935000	0.917586
-8.341423	15.935000	15.905938
-7.341423	15.935000	37.959682
-6.341423	15.935000	21.157127
-5.341423	15.935000	21.725285
-4.341423	15.935000	28.942766
-3.341423	15.935000	25.152525
-2.341423	15.935000	23.045404
-1.341423	15.935000	35.977623
-0.341423	15.935000	13.580647
0.658577	15.935000	12.408896
1.658577	15.935000	21.250393
2.658577	15.935000	24.198547
3.658577	15.935000	28.753132
4.658577	15.935000	9.628676
5.658577	15.935000	9.181152
6.658577	15.935000	5.087087
7.658577	15.935000	4.023387
8.658577	15.935000	18.451555
9.658577	15.935000	20.477861
10.658577	15.935000	20.800859
11.658577	15.935000	19.841900
12.658577	15.935000	32.655720
13.658577	15.935000	28.670670
14.658577	15.935000	1.120700
15.658577	15.935000	4.082221
16.658577	15.935000	0.639823
17.658577	15.935000	3.085013
18.658577	15.935000	0.954790
19.658577	15.935000	0.639823
20.658577	15.935000	0.639823
21.658577	15.935000	56.231140
22.658577	15.935000	12.619232
23.658577	15.935000	231.825302
24.658577	15.935000	3.158348
