#XList		#YList		#IList		
-39.341423	-21.065000	48.524227
-38.341423	-21.065000	25.634207
-37.341423	-21.065000	30.319731
-36.341423	-21.065000	18.844027
-35.341423	-21.065000	39.128799
-34.341423	-21.065000	135.470856
-33.341423	-21.065000	390.382324
-32.341423	-21.065000	216.109299
-31.341423	-21.065000	714.427124
-30.341423	-21.065000	337.440247
-29.341423	-21.065000	471.898102
-28.341423	-21.065000	151.839264
-27.341423	-21.065000	472.647797
-26.341423	-21.065000	135.482788
-25.341423	-21.065000	56.234081
-24.341423	-21.065000	10.833643
-23.341423	-21.065000	3.855817
-22.341423	-21.065000	8.696175
-21.341423	-21.065000	102.963638
-20.341423	-21.065000	19.141188
-19.341423	-21.065000	12.978005
-18.341423	-21.065000	12.274729
-17.341423	-21.065000	124.867920
-16.341423	-21.065000	871.598206
-15.341423	-21.065000	855.565186
-14.341423	-21.065000	729.059143
-13.341423	-21.065000	529.976257
-12.341423	-21.065000	695.346313
-11.341423	-21.065000	109.289726
-10.341423	-21.065000	0.000000
-9.341423	-21.065000	0.000000
-8.341423	-21.065000	62.262753
-7.341423	-21.065000	118.739990
-6.341423	-21.065000	210.806595
-5.341423	-21.065000	177.599411
-4.341423	-21.065000	49.498936
-3.341423	-21.065000	7.391188
-2.341423	-21.065000	105.048988
-1.341423	-21.065000	85.806282
-0.341423	-21.065000	135.561172
0.658577	-21.065000	77.185181
1.658577	-21.065000	84.899635
2.658577	-21.065000	106.719200
3.658577	-21.065000	143.038116
4.658577	-21.065000	65.721085
5.658577	-21.065000	49.265827
6.658577	-21.065000	0.000000
7.658577	-21.065000	0.000000
8.658577	-21.065000	7.920639
9.658577	-21.065000	55.682453
10.658577	-21.065000	64.494270
11.658577	-21.065000	133.744888
12.658577	-21.065000	165.013107
13.658577	-21.065000	157.811295
14.658577	-21.065000	245.542206
15.658577	-21.065000	152.404999
16.658577	-21.065000	69.827835
17.658577	-21.065000	103.126625
18.658577	-21.065000	182.546829
19.658577	-21.065000	442.247101
20.658577	-21.065000	56.217537
21.658577	-21.065000	0.000000
22.658577	-21.065000	0.000000
23.658577	-21.065000	1.184633
24.658577	-21.065000	0.000000
-39.341423	-20.065000	80.125908
-38.341423	-20.065000	47.067215
-37.341423	-20.065000	27.363651
-36.341423	-20.065000	41.880810
-35.341423	-20.065000	39.916248
-34.341423	-20.065000	95.929932
-33.341423	-20.065000	142.769867
-32.341423	-20.065000	304.632568
-31.341423	-20.065000	563.523865
-30.341423	-20.065000	363.416748
-29.341423	-20.065000	195.705872
-28.341423	-20.065000	141.069702
-27.341423	-20.065000	222.651535
-26.341423	-20.065000	188.384552
-25.341423	-20.065000	207.665588
-24.341423	-20.065000	131.272232
-23.341423	-20.065000	46.794640
-22.341423	-20.065000	41.931614
-21.341423	-20.065000	214.908600
-20.341423	-20.065000	110.573425
-19.341423	-20.065000	54.941601
-18.341423	-20.065000	61.008202
-17.341423	-20.065000	687.622131
-16.341423	-20.065000	911.859924
-15.341423	-20.065000	849.849487
-14.341423	-20.065000	735.609375
-13.341423	-20.065000	698.798584
-12.341423	-20.065000	724.831909
-11.341423	-20.065000	30.706633
-10.341423	-20.065000	16.708397
-9.341423	-20.065000	104.419487
-8.341423	-20.065000	114.919998
-7.341423	-20.065000	114.234650
-6.341423	-20.065000	141.527237
-5.341423	-20.065000	133.207687
-4.341423	-20.065000	71.150711
-3.341423	-20.065000	66.592850
-2.341423	-20.065000	314.339844
-1.341423	-20.065000	154.963455
-0.341423	-20.065000	91.902657
0.658577	-20.065000	61.983562
1.658577	-20.065000	65.692741
2.658577	-20.065000	60.310852
3.658577	-20.065000	49.657536
4.658577	-20.065000	44.339928
5.658577	-20.065000	19.042082
6.658577	-20.065000	0.000000
7.658577	-20.065000	0.000000
8.658577	-20.065000	0.000000
9.658577	-20.065000	75.753014
10.658577	-20.065000	98.497673
11.658577	-20.065000	106.053741
12.658577	-20.065000	185.549042
13.658577	-20.065000	182.006042
14.658577	-20.065000	184.127563
15.658577	-20.065000	161.780441
16.658577	-20.065000	220.376221
17.658577	-20.065000	114.644814
18.658577	-20.065000	225.576279
19.658577	-20.065000	373.772125
20.658577	-20.065000	417.591522
21.658577	-20.065000	160.388245
22.658577	-20.065000	1.457178
23.658577	-20.065000	72.448311
24.658577	-20.065000	0.000000
-39.341423	-19.065000	82.456589
-38.341423	-19.065000	34.814865
-37.341423	-19.065000	29.913124
-36.341423	-19.065000	37.471603
-35.341423	-19.065000	58.766640
-34.341423	-19.065000	12.066577
-33.341423	-19.065000	94.199615
-32.341423	-19.065000	0.000000
-31.341423	-19.065000	751.911316
-30.341423	-19.065000	653.236511
-29.341423	-19.065000	157.986282
-28.341423	-19.065000	172.813690
-27.341423	-19.065000	166.865601
-26.341423	-19.065000	136.967316
-25.341423	-19.065000	186.570251
-24.341423	-19.065000	187.461731
-23.341423	-19.065000	200.315216
-22.341423	-19.065000	177.904144
-21.341423	-19.065000	154.442764
-20.341423	-19.065000	195.425110
-19.341423	-19.065000	277.793732
-18.341423	-19.065000	120.860191
-17.341423	-19.065000	792.692505
-16.341423	-19.065000	947.162048
-15.341423	-19.065000	838.710632
-14.341423	-19.065000	635.197632
-13.341423	-19.065000	635.796753
-12.341423	-19.065000	609.106628
-11.341423	-19.065000	183.434250
-10.341423	-19.065000	230.313583
-9.341423	-19.065000	157.843674
-8.341423	-19.065000	156.085037
-7.341423	-19.065000	186.555542
-6.341423	-19.065000	202.687485
-5.341423	-19.065000	131.800064
-4.341423	-19.065000	150.880798
-3.341423	-19.065000	0.000000
-2.341423	-19.065000	91.705414
-1.341423	-19.065000	83.848518
-0.341423	-19.065000	132.490906
0.658577	-19.065000	47.858665
1.658577	-19.065000	38.688091
2.658577	-19.065000	56.905964
3.658577	-19.065000	94.822243
4.658577	-19.065000	73.466339
5.658577	-19.065000	8.116706
6.658577	-19.065000	7.135876
7.658577	-19.065000	34.557373
8.658577	-19.065000	154.685883
9.658577	-19.065000	148.128311
10.658577	-19.065000	107.190193
11.658577	-19.065000	162.782471
12.658577	-19.065000	187.163345
13.658577	-19.065000	203.706421
14.658577	-19.065000	193.044403
15.658577	-19.065000	84.561821
16.658577	-19.065000	176.040878
17.658577	-19.065000	61.517281
18.658577	-19.065000	153.632828
19.658577	-19.065000	221.102661
20.658577	-19.065000	372.873871
21.658577	-19.065000	159.359787
22.658577	-19.065000	32.648609
23.658577	-19.065000	5.017602
24.658577	-19.065000	3.603269
-39.341423	-18.065000	212.121429
-38.341423	-18.065000	66.820786
-37.341423	-18.065000	0.000000
-36.341423	-18.065000	84.733253
-35.341423	-18.065000	150.413284
-34.341423	-18.065000	8.409606
-33.341423	-18.065000	66.394249
-32.341423	-18.065000	409.565033
-31.341423	-18.065000	532.601440
-30.341423	-18.065000	732.053589
-29.341423	-18.065000	392.003693
-28.341423	-18.065000	224.806976
-27.341423	-18.065000	172.738663
-26.341423	-18.065000	450.161163
-25.341423	-18.065000	150.962708
-24.341423	-18.065000	191.471863
-23.341423	-18.065000	172.068832
-22.341423	-18.065000	165.559189
-21.341423	-18.065000	144.103088
-20.341423	-18.065000	181.432617
-19.341423	-18.065000	263.468109
-18.341423	-18.065000	223.379364
-17.341423	-18.065000	602.173340
-16.341423	-18.065000	636.206055
-15.341423	-18.065000	818.607178
-14.341423	-18.065000	786.401062
-13.341423	-18.065000	781.268860
-12.341423	-18.065000	641.552490
-11.341423	-18.065000	319.096710
-10.341423	-18.065000	193.339767
-9.341423	-18.065000	0.000000
-8.341423	-18.065000	170.263565
-7.341423	-18.065000	216.372726
-6.341423	-18.065000	199.934082
-5.341423	-18.065000	151.263306
-4.341423	-18.065000	155.685715
-3.341423	-18.065000	440.907990
-2.341423	-18.065000	108.050499
-1.341423	-18.065000	76.474815
-0.341423	-18.065000	80.843285
0.658577	-18.065000	40.859123
1.658577	-18.065000	37.117970
2.658577	-18.065000	128.803253
3.658577	-18.065000	65.841705
4.658577	-18.065000	188.962875
5.658577	-18.065000	56.780064
6.658577	-18.065000	273.104523
7.658577	-18.065000	618.359375
8.658577	-18.065000	693.244507
9.658577	-18.065000	392.873749
10.658577	-18.065000	415.687988
11.658577	-18.065000	560.906677
12.658577	-18.065000	395.156860
13.658577	-18.065000	369.096436
14.658577	-18.065000	189.380737
15.658577	-18.065000	185.997375
16.658577	-18.065000	232.285477
17.658577	-18.065000	152.339844
18.658577	-18.065000	173.779205
19.658577	-18.065000	115.268463
20.658577	-18.065000	15.703304
21.658577	-18.065000	159.750549
22.658577	-18.065000	436.234955
23.658577	-18.065000	296.743896
24.658577	-18.065000	292.078033
-39.341423	-17.065000	0.000000
-38.341423	-17.065000	293.156006
-37.341423	-17.065000	736.528259
-36.341423	-17.065000	43.669979
-35.341423	-17.065000	8.093624
-34.341423	-17.065000	0.000000
-33.341423	-17.065000	12.204574
-32.341423	-17.065000	89.184502
-31.341423	-17.065000	149.906799
-30.341423	-17.065000	378.276947
-29.341423	-17.065000	390.518066
-28.341423	-17.065000	156.696091
-27.341423	-17.065000	144.551788
-26.341423	-17.065000	113.757904
-25.341423	-17.065000	176.977493
-24.341423	-17.065000	186.649277
-23.341423	-17.065000	219.392212
-22.341423	-17.065000	220.670807
-21.341423	-17.065000	315.978851
-20.341423	-17.065000	83.501907
-19.341423	-17.065000	242.934906
-18.341423	-17.065000	33.801369
-17.341423	-17.065000	353.731445
-16.341423	-17.065000	656.371826
-15.341423	-17.065000	828.708435
-14.341423	-17.065000	861.684631
-13.341423	-17.065000	699.120911
-12.341423	-17.065000	717.177246
-11.341423	-17.065000	320.715210
-10.341423	-17.065000	231.982208
-9.341423	-17.065000	164.273178
-8.341423	-17.065000	283.991547
-7.341423	-17.065000	48.837776
-6.341423	-17.065000	695.931274
-5.341423	-17.065000	501.786194
-4.341423	-17.065000	156.223068
-3.341423	-17.065000	80.646614
-2.341423	-17.065000	63.104855
-1.341423	-17.065000	230.695633
-0.341423	-17.065000	49.821339
0.658577	-17.065000	88.955803
1.658577	-17.065000	70.974266
2.658577	-17.065000	43.910637
3.658577	-17.065000	46.850487
4.658577	-17.065000	182.967575
5.658577	-17.065000	34.147240
6.658577	-17.065000	185.675949
7.658577	-17.065000	335.783539
8.658577	-17.065000	363.434265
9.658577	-17.065000	393.925385
10.658577	-17.065000	394.744934
11.658577	-17.065000	396.732605
12.658577	-17.065000	412.817383
13.658577	-17.065000	313.596985
14.658577	-17.065000	177.302811
15.658577	-17.065000	434.050110
16.658577	-17.065000	139.760605
17.658577	-17.065000	81.454254
18.658577	-17.065000	81.841599
19.658577	-17.065000	110.230370
20.658577	-17.065000	40.416519
21.658577	-17.065000	233.738037
22.658577	-17.065000	318.750854
23.658577	-17.065000	136.417496
24.658577	-17.065000	424.023132
-39.341423	-16.065000	104.551010
-38.341423	-16.065000	306.588806
-37.341423	-16.065000	197.865585
-36.341423	-16.065000	70.709259
-35.341423	-16.065000	112.449814
-34.341423	-16.065000	134.120560
-33.341423	-16.065000	301.309723
-32.341423	-16.065000	606.048279
-31.341423	-16.065000	391.728058
-30.341423	-16.065000	335.040771
-29.341423	-16.065000	187.906265
-28.341423	-16.065000	158.605362
-27.341423	-16.065000	192.772949
-26.341423	-16.065000	357.398407
-25.341423	-16.065000	172.407913
-24.341423	-16.065000	182.863449
-23.341423	-16.065000	194.469772
-22.341423	-16.065000	202.787567
-21.341423	-16.065000	155.398376
-20.341423	-16.065000	32.247757
-19.341423	-16.065000	7.535460
-18.341423	-16.065000	9.107388
-17.341423	-16.065000	97.194283
-16.341423	-16.065000	386.820801
-15.341423	-16.065000	779.252563
-14.341423	-16.065000	969.295776
-13.341423	-16.065000	878.309814
-12.341423	-16.065000	457.113556
-11.341423	-16.065000	280.681763
-10.341423	-16.065000	165.545120
-9.341423	-16.065000	265.102051
-8.341423	-16.065000	63.240364
-7.341423	-16.065000	106.021500
-6.341423	-16.065000	233.205688
-5.341423	-16.065000	582.938110
-4.341423	-16.065000	149.810181
-3.341423	-16.065000	45.042728
-2.341423	-16.065000	39.059723
-1.341423	-16.065000	93.558800
-0.341423	-16.065000	259.881165
0.658577	-16.065000	195.489609
1.658577	-16.065000	72.713150
2.658577	-16.065000	27.002174
3.658577	-16.065000	33.635521
4.658577	-16.065000	52.226513
5.658577	-16.065000	162.843124
6.658577	-16.065000	182.176926
7.658577	-16.065000	318.321930
8.658577	-16.065000	336.643921
9.658577	-16.065000	157.321426
10.658577	-16.065000	418.200470
11.658577	-16.065000	570.894531
12.658577	-16.065000	410.215881
13.658577	-16.065000	50.037903
14.658577	-16.065000	101.056961
15.658577	-16.065000	384.417084
16.658577	-16.065000	314.130646
17.658577	-16.065000	124.080650
18.658577	-16.065000	107.578300
19.658577	-16.065000	178.671814
20.658577	-16.065000	119.469223
21.658577	-16.065000	172.907684
22.658577	-16.065000	203.654221
23.658577	-16.065000	221.316513
24.658577	-16.065000	239.091019
-39.341423	-15.065000	36.561089
-38.341423	-15.065000	20.981947
-37.341423	-15.065000	67.566345
-36.341423	-15.065000	503.486450
-35.341423	-15.065000	810.350037
-34.341423	-15.065000	742.515381
-33.341423	-15.065000	708.518311
-32.341423	-15.065000	700.765991
-31.341423	-15.065000	373.544861
-30.341423	-15.065000	320.873352
-29.341423	-15.065000	178.687469
-28.341423	-15.065000	175.815369
-27.341423	-15.065000	395.185181
-26.341423	-15.065000	169.068619
-25.341423	-15.065000	184.534607
-24.341423	-15.065000	399.672699
-23.341423	-15.065000	164.389709
-22.341423	-15.065000	171.992310
-21.341423	-15.065000	176.295242
-20.341423	-15.065000	24.061222
-19.341423	-15.065000	0.206366
-18.341423	-15.065000	425.274170
-17.341423	-15.065000	601.809448
-16.341423	-15.065000	659.388672
-15.341423	-15.065000	696.150757
-14.341423	-15.065000	742.120422
-13.341423	-15.065000	658.492493
-12.341423	-15.065000	224.734100
-11.341423	-15.065000	112.311333
-10.341423	-15.065000	158.668228
-9.341423	-15.065000	129.193954
-8.341423	-15.065000	107.958145
-7.341423	-15.065000	89.860786
-6.341423	-15.065000	117.893448
-5.341423	-15.065000	154.179474
-4.341423	-15.065000	84.515617
-3.341423	-15.065000	35.702606
-2.341423	-15.065000	41.675667
-1.341423	-15.065000	44.722282
-0.341423	-15.065000	247.473267
0.658577	-15.065000	191.768219
1.658577	-15.065000	67.005821
2.658577	-15.065000	71.120316
3.658577	-15.065000	49.120319
4.658577	-15.065000	131.256958
5.658577	-15.065000	408.653992
6.658577	-15.065000	526.100769
7.658577	-15.065000	328.472809
8.658577	-15.065000	377.255798
9.658577	-15.065000	465.533783
10.658577	-15.065000	414.629822
11.658577	-15.065000	395.179291
12.658577	-15.065000	48.227562
13.658577	-15.065000	18.549223
14.658577	-15.065000	107.404404
15.658577	-15.065000	37.632694
16.658577	-15.065000	132.551041
17.658577	-15.065000	162.898132
18.658577	-15.065000	164.617249
19.658577	-15.065000	60.993610
20.658577	-15.065000	55.547123
21.658577	-15.065000	157.730133
22.658577	-15.065000	315.500519
23.658577	-15.065000	210.886368
24.658577	-15.065000	187.268631
-39.341423	-14.065000	17.949692
-38.341423	-14.065000	110.705376
-37.341423	-14.065000	698.661011
-36.341423	-14.065000	737.868896
-35.341423	-14.065000	629.995422
-34.341423	-14.065000	548.733032
-33.341423	-14.065000	565.060669
-32.341423	-14.065000	671.817627
-31.341423	-14.065000	522.002930
-30.341423	-14.065000	384.542297
-29.341423	-14.065000	125.218994
-28.341423	-14.065000	139.542145
-27.341423	-14.065000	436.473022
-26.341423	-14.065000	286.689880
-25.341423	-14.065000	162.984146
-24.341423	-14.065000	129.043350
-23.341423	-14.065000	173.507675
-22.341423	-14.065000	149.497833
-21.341423	-14.065000	76.296349
-20.341423	-14.065000	190.654221
-19.341423	-14.065000	1.893501
-18.341423	-14.065000	241.397171
-17.341423	-14.065000	165.401199
-16.341423	-14.065000	386.100128
-15.341423	-14.065000	696.364990
-14.341423	-14.065000	648.683899
-13.341423	-14.065000	196.601776
-12.341423	-14.065000	314.145355
-11.341423	-14.065000	104.486908
-10.341423	-14.065000	85.724045
-9.341423	-14.065000	53.783943
-8.341423	-14.065000	44.051861
-7.341423	-14.065000	57.225571
-6.341423	-14.065000	88.152016
-5.341423	-14.065000	97.585754
-4.341423	-14.065000	46.891014
-3.341423	-14.065000	36.990788
-2.341423	-14.065000	30.762243
-1.341423	-14.065000	34.473652
-0.341423	-14.065000	114.199829
0.658577	-14.065000	152.003693
1.658577	-14.065000	120.545654
2.658577	-14.065000	43.502941
3.658577	-14.065000	33.246731
4.658577	-14.065000	40.995033
5.658577	-14.065000	119.735489
6.658577	-14.065000	503.819763
7.658577	-14.065000	517.072937
8.658577	-14.065000	90.288673
9.658577	-14.065000	473.942688
10.658577	-14.065000	318.556793
11.658577	-14.065000	11.224098
12.658577	-14.065000	19.036680
13.658577	-14.065000	204.864563
14.658577	-14.065000	64.203575
15.658577	-14.065000	9.876975
16.658577	-14.065000	9.105420
17.658577	-14.065000	14.552848
18.658577	-14.065000	34.354813
19.658577	-14.065000	60.739250
20.658577	-14.065000	130.241135
21.658577	-14.065000	159.439407
22.658577	-14.065000	172.907745
23.658577	-14.065000	119.481651
24.658577	-14.065000	43.555340
-39.341423	-13.065000	419.787384
-38.341423	-13.065000	599.017822
-37.341423	-13.065000	723.083557
-36.341423	-13.065000	648.485779
-35.341423	-13.065000	580.303223
-34.341423	-13.065000	564.055115
-33.341423	-13.065000	601.679810
-32.341423	-13.065000	619.064392
-31.341423	-13.065000	598.878052
-30.341423	-13.065000	522.789063
-29.341423	-13.065000	424.780182
-28.341423	-13.065000	416.862610
-27.341423	-13.065000	292.798065
-26.341423	-13.065000	218.012360
-25.341423	-13.065000	195.370529
-24.341423	-13.065000	148.777557
-23.341423	-13.065000	159.369659
-22.341423	-13.065000	434.204529
-21.341423	-13.065000	113.454559
-20.341423	-13.065000	157.654755
-19.341423	-13.065000	96.719818
-18.341423	-13.065000	26.379808
-17.341423	-13.065000	22.058884
-16.341423	-13.065000	32.939129
-15.341423	-13.065000	102.078705
-14.341423	-13.065000	28.076725
-13.341423	-13.065000	11.036437
-12.341423	-13.065000	51.059494
-11.341423	-13.065000	86.503242
-10.341423	-13.065000	88.832512
-9.341423	-13.065000	50.525742
-8.341423	-13.065000	46.365650
-7.341423	-13.065000	49.403584
-6.341423	-13.065000	73.665817
-5.341423	-13.065000	81.206062
-4.341423	-13.065000	55.993404
-3.341423	-13.065000	56.910980
-2.341423	-13.065000	46.211151
-1.341423	-13.065000	102.763771
-0.341423	-13.065000	217.979156
0.658577	-13.065000	149.058716
1.658577	-13.065000	107.699654
2.658577	-13.065000	48.170498
3.658577	-13.065000	50.434208
4.658577	-13.065000	47.774738
5.658577	-13.065000	56.647057
6.658577	-13.065000	124.127548
7.658577	-13.065000	655.024048
8.658577	-13.065000	475.483429
9.658577	-13.065000	374.688965
10.658577	-13.065000	18.689749
11.658577	-13.065000	11.693044
12.658577	-13.065000	13.232463
13.658577	-13.065000	79.885948
14.658577	-13.065000	137.905792
15.658577	-13.065000	52.744911
16.658577	-13.065000	138.307281
17.658577	-13.065000	298.781006
18.658577	-13.065000	161.185303
19.658577	-13.065000	170.637115
20.658577	-13.065000	282.481995
21.658577	-13.065000	136.441956
22.658577	-13.065000	160.610397
23.658577	-13.065000	138.700943
24.658577	-13.065000	102.936287
-39.341423	-12.065000	566.824341
-38.341423	-12.065000	652.210571
-37.341423	-12.065000	668.249268
-36.341423	-12.065000	656.200073
-35.341423	-12.065000	585.904663
-34.341423	-12.065000	586.073059
-33.341423	-12.065000	556.560486
-32.341423	-12.065000	576.479492
-31.341423	-12.065000	495.786591
-30.341423	-12.065000	521.201660
-29.341423	-12.065000	579.857971
-28.341423	-12.065000	510.482910
-27.341423	-12.065000	203.798492
-26.341423	-12.065000	469.687500
-25.341423	-12.065000	244.273346
-24.341423	-12.065000	439.392883
-23.341423	-12.065000	193.261841
-22.341423	-12.065000	434.861145
-21.341423	-12.065000	58.432762
-20.341423	-12.065000	63.721596
-19.341423	-12.065000	55.322186
-18.341423	-12.065000	30.650358
-17.341423	-12.065000	13.262513
-16.341423	-12.065000	22.884184
-15.341423	-12.065000	48.148201
-14.341423	-12.065000	17.292933
-13.341423	-12.065000	41.052048
-12.341423	-12.065000	144.490570
-11.341423	-12.065000	88.696831
-10.341423	-12.065000	98.257744
-9.341423	-12.065000	37.326202
-8.341423	-12.065000	48.315731
-7.341423	-12.065000	90.976433
-6.341423	-12.065000	134.637360
-5.341423	-12.065000	180.620285
-4.341423	-12.065000	45.345821
-3.341423	-12.065000	122.685898
-2.341423	-12.065000	129.319641
-1.341423	-12.065000	111.176338
-0.341423	-12.065000	154.175201
0.658577	-12.065000	83.878403
1.658577	-12.065000	42.870338
2.658577	-12.065000	34.760387
3.658577	-12.065000	40.386379
4.658577	-12.065000	60.474792
5.658577	-12.065000	52.600925
6.658577	-12.065000	137.362686
7.658577	-12.065000	233.568008
8.658577	-12.065000	151.509369
9.658577	-12.065000	7.316366
10.658577	-12.065000	6.272427
11.658577	-12.065000	5.356871
12.658577	-12.065000	90.936607
13.658577	-12.065000	61.123978
14.658577	-12.065000	118.652023
15.658577	-12.065000	209.247086
16.658577	-12.065000	230.575409
17.658577	-12.065000	247.933289
18.658577	-12.065000	180.642822
19.658577	-12.065000	126.402122
20.658577	-12.065000	92.295654
21.658577	-12.065000	105.865990
22.658577	-12.065000	96.036263
23.658577	-12.065000	131.578476
24.658577	-12.065000	133.626526
-39.341423	-11.065000	764.487854
-38.341423	-11.065000	665.213440
-37.341423	-11.065000	665.385132
-36.341423	-11.065000	554.318115
-35.341423	-11.065000	0.000000
-34.341423	-11.065000	532.759888
-33.341423	-11.065000	532.411682
-32.341423	-11.065000	511.023102
-31.341423	-11.065000	526.542542
-30.341423	-11.065000	663.842957
-29.341423	-11.065000	605.241882
-28.341423	-11.065000	635.200195
-27.341423	-11.065000	582.249634
-26.341423	-11.065000	624.943970
-25.341423	-11.065000	395.091797
-24.341423	-11.065000	236.975906
-23.341423	-11.065000	197.603699
-22.341423	-11.065000	168.974396
-21.341423	-11.065000	88.165329
-20.341423	-11.065000	157.550980
-19.341423	-11.065000	174.020615
-18.341423	-11.065000	39.845745
-17.341423	-11.065000	32.671600
-16.341423	-11.065000	28.832602
-15.341423	-11.065000	104.444130
-14.341423	-11.065000	80.670860
-13.341423	-11.065000	35.581673
-12.341423	-11.065000	175.966904
-11.341423	-11.065000	127.236763
-10.341423	-11.065000	83.703285
-9.341423	-11.065000	35.856739
-8.341423	-11.065000	27.412558
-7.341423	-11.065000	91.071159
-6.341423	-11.065000	140.581940
-5.341423	-11.065000	69.888573
-4.341423	-11.065000	53.586643
-3.341423	-11.065000	42.566463
-2.341423	-11.065000	38.788136
-1.341423	-11.065000	96.862587
-0.341423	-11.065000	77.659874
0.658577	-11.065000	58.543781
1.658577	-11.065000	101.470367
2.658577	-11.065000	102.243797
3.658577	-11.065000	33.784302
4.658577	-11.065000	34.248028
5.658577	-11.065000	50.699318
6.658577	-11.065000	113.492409
7.658577	-11.065000	128.489868
8.658577	-11.065000	0.006047
9.658577	-11.065000	8.408207
10.658577	-11.065000	24.054565
11.658577	-11.065000	71.642876
12.658577	-11.065000	12.852583
13.658577	-11.065000	155.405350
14.658577	-11.065000	190.422119
15.658577	-11.065000	207.250854
16.658577	-11.065000	132.596634
17.658577	-11.065000	105.731262
18.658577	-11.065000	76.191360
19.658577	-11.065000	60.285461
20.658577	-11.065000	45.032516
21.658577	-11.065000	58.728539
22.658577	-11.065000	72.236008
23.658577	-11.065000	102.171616
24.658577	-11.065000	142.093903
-39.341423	-10.065000	628.202698
-38.341423	-10.065000	669.924072
-37.341423	-10.065000	562.479980
-36.341423	-10.065000	541.597168
-35.341423	-10.065000	569.630005
-34.341423	-10.065000	576.785095
-33.341423	-10.065000	575.130676
-32.341423	-10.065000	667.884644
-31.341423	-10.065000	601.713806
-30.341423	-10.065000	575.114563
-29.341423	-10.065000	629.904175
-28.341423	-10.065000	578.087585
-27.341423	-10.065000	654.583130
-26.341423	-10.065000	590.861328
-25.341423	-10.065000	446.516510
-24.341423	-10.065000	253.147308
-23.341423	-10.065000	156.337555
-22.341423	-10.065000	12.112808
-21.341423	-10.065000	268.128113
-20.341423	-10.065000	214.012436
-19.341423	-10.065000	56.756844
-18.341423	-10.065000	55.129040
-17.341423	-10.065000	0.000000
-16.341423	-10.065000	83.303879
-15.341423	-10.065000	140.854889
-14.341423	-10.065000	312.226166
-13.341423	-10.065000	75.639511
-12.341423	-10.065000	459.214874
-11.341423	-10.065000	350.614136
-10.341423	-10.065000	194.321228
-9.341423	-10.065000	12.413538
-8.341423	-10.065000	33.476982
-7.341423	-10.065000	24.371859
-6.341423	-10.065000	22.994802
-5.341423	-10.065000	17.024799
-4.341423	-10.065000	22.520555
-3.341423	-10.065000	13.551737
-2.341423	-10.065000	39.592068
-1.341423	-10.065000	61.644234
-0.341423	-10.065000	110.843697
0.658577	-10.065000	158.997894
1.658577	-10.065000	132.202698
2.658577	-10.065000	62.057308
3.658577	-10.065000	30.667545
4.658577	-10.065000	22.736292
5.658577	-10.065000	63.172668
6.658577	-10.065000	290.043427
7.658577	-10.065000	334.874542
8.658577	-10.065000	30.437178
9.658577	-10.065000	7.525534
10.658577	-10.065000	2.539633
11.658577	-10.065000	0.000000
12.658577	-10.065000	27.710167
13.658577	-10.065000	137.294983
14.658577	-10.065000	107.332237
15.658577	-10.065000	222.907654
16.658577	-10.065000	137.199249
17.658577	-10.065000	66.749626
18.658577	-10.065000	63.599667
19.658577	-10.065000	0.000000
20.658577	-10.065000	87.564552
21.658577	-10.065000	71.418045
22.658577	-10.065000	51.003521
23.658577	-10.065000	81.818565
24.658577	-10.065000	67.726357
-39.341423	-9.065000	589.130615
-38.341423	-9.065000	505.076050
-37.341423	-9.065000	501.370636
-36.341423	-9.065000	567.974426
-35.341423	-9.065000	634.514893
-34.341423	-9.065000	652.671021
-33.341423	-9.065000	650.135437
-32.341423	-9.065000	714.640930
-31.341423	-9.065000	627.651489
-30.341423	-9.065000	629.553589
-29.341423	-9.065000	615.452820
-28.341423	-9.065000	546.848633
-27.341423	-9.065000	659.507874
-26.341423	-9.065000	376.463196
-25.341423	-9.065000	157.958618
-24.341423	-9.065000	19.118591
-23.341423	-9.065000	9.780245
-22.341423	-9.065000	9.812959
-21.341423	-9.065000	2.882366
-20.341423	-9.065000	22.629536
-19.341423	-9.065000	121.539093
-18.341423	-9.065000	30.414272
-17.341423	-9.065000	78.760941
-16.341423	-9.065000	204.288498
-15.341423	-9.065000	0.000000
-14.341423	-9.065000	449.667450
-13.341423	-9.065000	240.255478
-12.341423	-9.065000	0.000000
-11.341423	-9.065000	715.922913
-10.341423	-9.065000	608.452759
-9.341423	-9.065000	189.357178
-8.341423	-9.065000	450.055267
-7.341423	-9.065000	57.964832
-6.341423	-9.065000	22.592947
-5.341423	-9.065000	15.093080
-4.341423	-9.065000	26.783983
-3.341423	-9.065000	33.056248
-2.341423	-9.065000	23.167847
-1.341423	-9.065000	51.377720
-0.341423	-9.065000	147.688644
0.658577	-9.065000	143.257706
1.658577	-9.065000	28.502537
2.658577	-9.065000	22.419531
3.658577	-9.065000	22.707151
4.658577	-9.065000	80.126503
5.658577	-9.065000	377.439880
6.658577	-9.065000	321.004883
7.658577	-9.065000	458.968658
8.658577	-9.065000	12.182317
9.658577	-9.065000	8.534126
10.658577	-9.065000	0.000000
11.658577	-9.065000	6.695670
12.658577	-9.065000	132.399155
13.658577	-9.065000	114.089188
14.658577	-9.065000	89.746910
15.658577	-9.065000	37.466724
16.658577	-9.065000	90.030663
17.658577	-9.065000	109.382446
18.658577	-9.065000	83.668015
19.658577	-9.065000	66.674644
20.658577	-9.065000	99.037376
21.658577	-9.065000	106.414406
22.658577	-9.065000	92.664734
23.658577	-9.065000	79.765411
24.658577	-9.065000	49.524448
-39.341423	-8.065000	519.105835
-38.341423	-8.065000	481.075317
-37.341423	-8.065000	540.111572
-36.341423	-8.065000	642.371033
-35.341423	-8.065000	637.895935
-34.341423	-8.065000	677.914368
-33.341423	-8.065000	692.680725
-32.341423	-8.065000	750.175049
-31.341423	-8.065000	581.986023
-30.341423	-8.065000	564.339661
-29.341423	-8.065000	548.774475
-28.341423	-8.065000	595.877319
-27.341423	-8.065000	735.765991
-26.341423	-8.065000	473.951355
-25.341423	-8.065000	555.737305
-24.341423	-8.065000	116.220779
-23.341423	-8.065000	9.029139
-22.341423	-8.065000	12.090364
-21.341423	-8.065000	74.211662
-20.341423	-8.065000	108.890045
-19.341423	-8.065000	122.853111
-18.341423	-8.065000	167.788086
-17.341423	-8.065000	279.491058
-16.341423	-8.065000	418.681580
-15.341423	-8.065000	88.120247
-14.341423	-8.065000	135.227966
-13.341423	-8.065000	333.726196
-12.341423	-8.065000	163.337494
-11.341423	-8.065000	478.129761
-10.341423	-8.065000	390.480560
-9.341423	-8.065000	541.987305
-8.341423	-8.065000	432.642029
-7.341423	-8.065000	40.608860
-6.341423	-8.065000	19.564411
-5.341423	-8.065000	27.511871
-4.341423	-8.065000	25.892597
-3.341423	-8.065000	40.170204
-2.341423	-8.065000	21.993362
-1.341423	-8.065000	21.796144
-0.341423	-8.065000	49.966156
0.658577	-8.065000	149.072037
1.658577	-8.065000	34.832455
2.658577	-8.065000	33.167595
3.658577	-8.065000	124.783554
4.658577	-8.065000	174.399017
5.658577	-8.065000	297.357788
6.658577	-8.065000	471.789948
7.658577	-8.065000	396.873474
8.658577	-8.065000	1.286804
9.658577	-8.065000	0.000000
10.658577	-8.065000	0.000000
11.658577	-8.065000	0.000000
12.658577	-8.065000	34.308895
13.658577	-8.065000	151.029419
14.658577	-8.065000	119.069550
15.658577	-8.065000	152.069107
16.658577	-8.065000	106.929909
17.658577	-8.065000	151.744583
18.658577	-8.065000	108.243553
19.658577	-8.065000	108.710266
20.658577	-8.065000	87.624321
21.658577	-8.065000	62.072693
22.658577	-8.065000	75.320984
23.658577	-8.065000	107.846199
24.658577	-8.065000	0.000000
-39.341423	-7.065000	548.888794
-38.341423	-7.065000	448.157990
-37.341423	-7.065000	590.801453
-36.341423	-7.065000	649.071716
-35.341423	-7.065000	683.893188
-34.341423	-7.065000	729.264526
-33.341423	-7.065000	759.249634
-32.341423	-7.065000	671.549927
-31.341423	-7.065000	592.906555
-30.341423	-7.065000	548.634521
-29.341423	-7.065000	579.445496
-28.341423	-7.065000	561.187744
-27.341423	-7.065000	170.384735
-26.341423	-7.065000	581.721252
-25.341423	-7.065000	682.749878
-24.341423	-7.065000	151.553070
-23.341423	-7.065000	85.581055
-22.341423	-7.065000	41.448288
-21.341423	-7.065000	79.802269
-20.341423	-7.065000	131.014709
-19.341423	-7.065000	381.649261
-18.341423	-7.065000	148.836044
-17.341423	-7.065000	584.902649
-16.341423	-7.065000	514.901550
-15.341423	-7.065000	125.849655
-14.341423	-7.065000	389.149719
-13.341423	-7.065000	347.306641
-12.341423	-7.065000	170.883606
-11.341423	-7.065000	388.968658
-10.341423	-7.065000	452.619690
-9.341423	-7.065000	489.149994
-8.341423	-7.065000	674.811584
-7.341423	-7.065000	12.166092
-6.341423	-7.065000	5.666347
-5.341423	-7.065000	0.000000
-4.341423	-7.065000	11.217335
-3.341423	-7.065000	181.086182
-2.341423	-7.065000	305.617340
-1.341423	-7.065000	10.723556
-0.341423	-7.065000	20.413252
0.658577	-7.065000	8.613343
1.658577	-7.065000	8.197416
2.658577	-7.065000	138.287598
3.658577	-7.065000	134.204224
4.658577	-7.065000	129.268478
5.658577	-7.065000	312.854889
6.658577	-7.065000	178.893707
7.658577	-7.065000	45.089153
8.658577	-7.065000	7.440599
9.658577	-7.065000	5.155300
10.658577	-7.065000	82.312256
11.658577	-7.065000	16.642872
12.658577	-7.065000	18.253319
13.658577	-7.065000	385.266968
14.658577	-7.065000	0.000000
15.658577	-7.065000	372.481812
16.658577	-7.065000	109.251160
17.658577	-7.065000	99.038437
18.658577	-7.065000	98.923615
19.658577	-7.065000	0.000000
20.658577	-7.065000	147.544281
21.658577	-7.065000	110.052620
22.658577	-7.065000	99.332878
23.658577	-7.065000	0.000000
24.658577	-7.065000	85.636429
-39.341423	-6.065000	484.440216
-38.341423	-6.065000	521.489197
-37.341423	-6.065000	599.512085
-36.341423	-6.065000	607.729614
-35.341423	-6.065000	571.857178
-34.341423	-6.065000	665.178528
-33.341423	-6.065000	660.856873
-32.341423	-6.065000	711.555542
-31.341423	-6.065000	572.428589
-30.341423	-6.065000	587.543091
-29.341423	-6.065000	649.986206
-28.341423	-6.065000	687.400574
-27.341423	-6.065000	292.472839
-26.341423	-6.065000	556.886169
-25.341423	-6.065000	792.977966
-24.341423	-6.065000	685.416687
-23.341423	-6.065000	163.585831
-22.341423	-6.065000	297.859375
-21.341423	-6.065000	331.462250
-20.341423	-6.065000	98.471138
-19.341423	-6.065000	12.340927
-18.341423	-6.065000	11.393483
-17.341423	-6.065000	77.273949
-16.341423	-6.065000	456.278809
-15.341423	-6.065000	624.496582
-14.341423	-6.065000	465.290375
-13.341423	-6.065000	409.158325
-12.341423	-6.065000	481.939026
-11.341423	-6.065000	0.000000
-10.341423	-6.065000	503.608337
-9.341423	-6.065000	555.618408
-8.341423	-6.065000	765.931274
-7.341423	-6.065000	445.065186
-6.341423	-6.065000	259.173523
-5.341423	-6.065000	26.236128
-4.341423	-6.065000	11.909883
-3.341423	-6.065000	22.385654
-2.341423	-6.065000	58.134197
-1.341423	-6.065000	0.000000
-0.341423	-6.065000	2.252094
0.658577	-6.065000	0.000000
1.658577	-6.065000	15.544423
2.658577	-6.065000	109.607742
3.658577	-6.065000	187.462906
4.658577	-6.065000	139.553818
5.658577	-6.065000	188.838287
6.658577	-6.065000	173.985611
7.658577	-6.065000	181.696121
8.658577	-6.065000	11.057703
9.658577	-6.065000	12.103294
10.658577	-6.065000	98.435669
11.658577	-6.065000	190.892838
12.658577	-6.065000	410.564240
13.658577	-6.065000	200.030624
14.658577	-6.065000	173.979233
15.658577	-6.065000	205.382538
16.658577	-6.065000	256.903534
17.658577	-6.065000	98.168495
18.658577	-6.065000	83.401337
19.658577	-6.065000	84.067558
20.658577	-6.065000	85.508568
21.658577	-6.065000	127.151680
22.658577	-6.065000	103.549652
23.658577	-6.065000	124.946426
24.658577	-6.065000	82.202606
-39.341423	-5.065000	50.911018
-38.341423	-5.065000	223.499008
-37.341423	-5.065000	612.511047
-36.341423	-5.065000	538.598938
-35.341423	-5.065000	482.692963
-34.341423	-5.065000	595.211609
-33.341423	-5.065000	779.541809
-32.341423	-5.065000	876.936218
-31.341423	-5.065000	768.590271
-30.341423	-5.065000	773.689636
-29.341423	-5.065000	617.442932
-28.341423	-5.065000	385.188690
-27.341423	-5.065000	313.770233
-26.341423	-5.065000	300.979980
-25.341423	-5.065000	238.247574
-24.341423	-5.065000	766.409912
-23.341423	-5.065000	596.143066
-22.341423	-5.065000	332.928955
-21.341423	-5.065000	338.271210
-20.341423	-5.065000	15.898662
-19.341423	-5.065000	12.082302
-18.341423	-5.065000	11.700521
-17.341423	-5.065000	13.482303
-16.341423	-5.065000	336.325348
-15.341423	-5.065000	405.170258
-14.341423	-5.065000	561.239929
-13.341423	-5.065000	655.330750
-12.341423	-5.065000	557.085388
-11.341423	-5.065000	717.615356
-10.341423	-5.065000	623.527222
-9.341423	-5.065000	688.764526
-8.341423	-5.065000	484.019989
-7.341423	-5.065000	567.226990
-6.341423	-5.065000	558.262329
-5.341423	-5.065000	308.717285
-4.341423	-5.065000	6.399660
-3.341423	-5.065000	5.215853
-2.341423	-5.065000	30.995838
-1.341423	-5.065000	45.771172
-0.341423	-5.065000	129.363708
0.658577	-5.065000	117.569099
1.658577	-5.065000	24.443684
2.658577	-5.065000	26.964180
3.658577	-5.065000	26.407698
4.658577	-5.065000	212.738464
5.658577	-5.065000	189.351685
6.658577	-5.065000	127.324669
7.658577	-5.065000	165.866089
8.658577	-5.065000	18.852989
9.658577	-5.065000	71.318222
10.658577	-5.065000	250.640778
11.658577	-5.065000	167.869446
12.658577	-5.065000	433.274719
13.658577	-5.065000	0.000000
14.658577	-5.065000	0.000000
15.658577	-5.065000	262.455963
16.658577	-5.065000	260.603424
17.658577	-5.065000	169.608368
18.658577	-5.065000	103.846352
19.658577	-5.065000	101.496513
20.658577	-5.065000	116.349930
21.658577	-5.065000	75.449448
22.658577	-5.065000	39.387932
23.658577	-5.065000	75.054626
24.658577	-5.065000	34.675819
-39.341423	-4.065000	6.375788
-38.341423	-4.065000	74.983238
-37.341423	-4.065000	189.260345
-36.341423	-4.065000	0.000000
-35.341423	-4.065000	214.757736
-34.341423	-4.065000	709.577698
-33.341423	-4.065000	828.914001
-32.341423	-4.065000	416.433563
-31.341423	-4.065000	262.791870
-30.341423	-4.065000	249.259125
-29.341423	-4.065000	131.867798
-28.341423	-4.065000	323.523315
-27.341423	-4.065000	373.525665
-26.341423	-4.065000	342.191589
-25.341423	-4.065000	406.795929
-24.341423	-4.065000	523.403564
-23.341423	-4.065000	394.849182
-22.341423	-4.065000	436.362946
-21.341423	-4.065000	292.645050
-20.341423	-4.065000	184.960510
-19.341423	-4.065000	216.195221
-18.341423	-4.065000	63.483051
-17.341423	-4.065000	37.670773
-16.341423	-4.065000	142.321442
-15.341423	-4.065000	488.708893
-14.341423	-4.065000	482.502869
-13.341423	-4.065000	707.809570
-12.341423	-4.065000	445.923065
-11.341423	-4.065000	111.995232
-10.341423	-4.065000	0.000000
-9.341423	-4.065000	189.510895
-8.341423	-4.065000	444.546173
-7.341423	-4.065000	421.736359
-6.341423	-4.065000	132.307571
-5.341423	-4.065000	238.935760
-4.341423	-4.065000	4.969540
-3.341423	-4.065000	0.590589
-2.341423	-4.065000	18.690687
-1.341423	-4.065000	39.169304
-0.341423	-4.065000	233.879684
0.658577	-4.065000	164.183762
1.658577	-4.065000	67.288040
2.658577	-4.065000	16.041040
3.658577	-4.065000	29.270054
4.658577	-4.065000	54.062477
5.658577	-4.065000	165.473801
6.658577	-4.065000	296.245209
7.658577	-4.065000	421.391388
8.658577	-4.065000	287.688965
9.658577	-4.065000	406.583710
10.658577	-4.065000	415.860352
11.658577	-4.065000	135.657730
12.658577	-4.065000	429.072723
13.658577	-4.065000	821.688599
14.658577	-4.065000	705.549316
15.658577	-4.065000	147.621033
16.658577	-4.065000	253.723495
17.658577	-4.065000	197.998657
18.658577	-4.065000	197.377808
19.658577	-4.065000	169.271988
20.658577	-4.065000	102.098389
21.658577	-4.065000	188.458969
22.658577	-4.065000	112.654449
23.658577	-4.065000	71.339203
24.658577	-4.065000	39.055988
-39.341423	-3.065000	11.361350
-38.341423	-3.065000	10.163852
-37.341423	-3.065000	84.239571
-36.341423	-3.065000	123.857040
-35.341423	-3.065000	0.000000
-34.341423	-3.065000	693.085510
-33.341423	-3.065000	298.541595
-32.341423	-3.065000	33.818359
-31.341423	-3.065000	70.831299
-30.341423	-3.065000	715.480347
-29.341423	-3.065000	26.079798
-28.341423	-3.065000	13.397889
-27.341423	-3.065000	82.582718
-26.341423	-3.065000	0.000000
-25.341423	-3.065000	0.000000
-24.341423	-3.065000	689.261353
-23.341423	-3.065000	687.019226
-22.341423	-3.065000	486.801971
-21.341423	-3.065000	297.343903
-20.341423	-3.065000	229.546371
-19.341423	-3.065000	200.044739
-18.341423	-3.065000	174.639038
-17.341423	-3.065000	281.802216
-16.341423	-3.065000	63.756271
-15.341423	-3.065000	334.962006
-14.341423	-3.065000	599.351013
-13.341423	-3.065000	539.322205
-12.341423	-3.065000	0.000000
-11.341423	-3.065000	80.351295
-10.341423	-3.065000	123.361549
-9.341423	-3.065000	104.171089
-8.341423	-3.065000	111.428917
-7.341423	-3.065000	44.389690
-6.341423	-3.065000	53.715889
-5.341423	-3.065000	143.467346
-4.341423	-3.065000	102.432327
-3.341423	-3.065000	43.388744
-2.341423	-3.065000	317.121948
-1.341423	-3.065000	728.976868
-0.341423	-3.065000	800.036255
0.658577	-3.065000	529.649536
1.658577	-3.065000	107.895172
2.658577	-3.065000	31.308926
3.658577	-3.065000	345.840881
4.658577	-3.065000	25.621881
5.658577	-3.065000	136.147324
6.658577	-3.065000	242.261459
7.658577	-3.065000	286.189880
8.658577	-3.065000	393.985046
9.658577	-3.065000	339.787659
10.658577	-3.065000	174.583649
11.658577	-3.065000	197.065430
12.658577	-3.065000	714.219788
13.658577	-3.065000	821.829468
14.658577	-3.065000	688.894470
15.658577	-3.065000	195.077942
16.658577	-3.065000	233.033279
17.658577	-3.065000	220.156586
18.658577	-3.065000	197.458038
19.658577	-3.065000	77.635361
20.658577	-3.065000	106.550171
21.658577	-3.065000	115.619049
22.658577	-3.065000	21.650978
23.658577	-3.065000	55.235233
24.658577	-3.065000	76.799820
-39.341423	-2.065000	34.459251
-38.341423	-2.065000	171.070175
-37.341423	-2.065000	202.862946
-36.341423	-2.065000	17.899870
-35.341423	-2.065000	61.028172
-34.341423	-2.065000	65.939240
-33.341423	-2.065000	40.557510
-32.341423	-2.065000	8.120141
-31.341423	-2.065000	228.162003
-30.341423	-2.065000	543.296082
-29.341423	-2.065000	21.464750
-28.341423	-2.065000	0.000000
-27.341423	-2.065000	56.836857
-26.341423	-2.065000	580.505066
-25.341423	-2.065000	655.566833
-24.341423	-2.065000	730.557922
-23.341423	-2.065000	174.003006
-22.341423	-2.065000	395.163147
-21.341423	-2.065000	176.659958
-20.341423	-2.065000	101.579109
-19.341423	-2.065000	186.256805
-18.341423	-2.065000	54.213390
-17.341423	-2.065000	27.869465
-16.341423	-2.065000	103.100876
-15.341423	-2.065000	810.719299
-14.341423	-2.065000	604.244751
-13.341423	-2.065000	389.407684
-12.341423	-2.065000	0.000000
-11.341423	-2.065000	141.651337
-10.341423	-2.065000	387.340240
-9.341423	-2.065000	0.000000
-8.341423	-2.065000	82.743172
-7.341423	-2.065000	48.047882
-6.341423	-2.065000	65.129883
-5.341423	-2.065000	168.950928
-4.341423	-2.065000	73.711143
-3.341423	-2.065000	114.896767
-2.341423	-2.065000	548.342407
-1.341423	-2.065000	621.392151
-0.341423	-2.065000	791.467102
0.658577	-2.065000	835.487549
1.658577	-2.065000	429.837006
2.658577	-2.065000	28.387819
3.658577	-2.065000	182.664505
4.658577	-2.065000	23.086664
5.658577	-2.065000	177.504623
6.658577	-2.065000	0.000000
7.658577	-2.065000	290.445709
8.658577	-2.065000	191.578781
9.658577	-2.065000	147.774506
10.658577	-2.065000	131.409409
11.658577	-2.065000	122.140923
12.658577	-2.065000	238.368454
13.658577	-2.065000	783.835266
14.658577	-2.065000	726.416260
15.658577	-2.065000	0.000000
16.658577	-2.065000	190.428619
17.658577	-2.065000	144.378540
18.658577	-2.065000	203.533203
19.658577	-2.065000	0.023865
20.658577	-2.065000	108.224808
21.658577	-2.065000	4.753697
22.658577	-2.065000	5.537055
23.658577	-2.065000	43.877415
24.658577	-2.065000	50.720577
-39.341423	-1.065000	2.458948
-38.341423	-1.065000	14.349963
-37.341423	-1.065000	89.437843
-36.341423	-1.065000	27.228880
-35.341423	-1.065000	28.165714
-34.341423	-1.065000	32.047794
-33.341423	-1.065000	154.472763
-32.341423	-1.065000	94.226341
-31.341423	-1.065000	88.284035
-30.341423	-1.065000	51.108585
-29.341423	-1.065000	7.608171
-28.341423	-1.065000	0.408158
-27.341423	-1.065000	3.643497
-26.341423	-1.065000	98.132278
-25.341423	-1.065000	535.153442
-24.341423	-1.065000	515.338257
-23.341423	-1.065000	290.214386
-22.341423	-1.065000	484.954773
-21.341423	-1.065000	177.633606
-20.341423	-1.065000	61.719349
-19.341423	-1.065000	66.473564
-18.341423	-1.065000	29.974630
-17.341423	-1.065000	86.122177
-16.341423	-1.065000	124.875114
-15.341423	-1.065000	379.533203
-14.341423	-1.065000	649.735535
-13.341423	-1.065000	375.480408
-12.341423	-1.065000	423.285248
-11.341423	-1.065000	214.494843
-10.341423	-1.065000	173.714218
-9.341423	-1.065000	77.774666
-8.341423	-1.065000	114.420113
-7.341423	-1.065000	86.216431
-6.341423	-1.065000	70.263992
-5.341423	-1.065000	503.147308
-4.341423	-1.065000	111.650681
-3.341423	-1.065000	100.555382
-2.341423	-1.065000	622.120483
-1.341423	-1.065000	581.743164
-0.341423	-1.065000	799.589783
0.658577	-1.065000	722.436096
1.658577	-1.065000	651.650574
2.658577	-1.065000	391.654449
3.658577	-1.065000	62.893284
4.658577	-1.065000	95.453217
5.658577	-1.065000	206.246796
6.658577	-1.065000	103.393646
7.658577	-1.065000	308.653229
8.658577	-1.065000	70.191086
9.658577	-1.065000	164.428757
10.658577	-1.065000	150.370453
11.658577	-1.065000	514.413879
12.658577	-1.065000	398.995728
13.658577	-1.065000	562.573120
14.658577	-1.065000	716.395264
15.658577	-1.065000	404.026001
16.658577	-1.065000	156.198669
17.658577	-1.065000	136.589584
18.658577	-1.065000	50.525448
19.658577	-1.065000	180.423386
20.658577	-1.065000	267.654022
21.658577	-1.065000	526.225647
22.658577	-1.065000	43.227654
23.658577	-1.065000	46.077412
24.658577	-1.065000	46.954102
-39.341423	-0.065000	12.147455
-38.341423	-0.065000	8.528331
-37.341423	-0.065000	11.149070
-36.341423	-0.065000	12.291227
-35.341423	-0.065000	15.293371
-34.341423	-0.065000	53.110954
-33.341423	-0.065000	57.221840
-32.341423	-0.065000	31.491453
-31.341423	-0.065000	36.324326
-30.341423	-0.065000	24.742384
-29.341423	-0.065000	13.226238
-28.341423	-0.065000	0.000000
-27.341423	-0.065000	5.164780
-26.341423	-0.065000	43.264767
-25.341423	-0.065000	541.328369
-24.341423	-0.065000	641.960449
-23.341423	-0.065000	417.256561
-22.341423	-0.065000	85.612144
-21.341423	-0.065000	29.649038
-20.341423	-0.065000	88.116241
-19.341423	-0.065000	421.476410
-18.341423	-0.065000	238.574326
-17.341423	-0.065000	79.647003
-16.341423	-0.065000	158.761246
-15.341423	-0.065000	81.647369
-14.341423	-0.065000	550.503784
-13.341423	-0.065000	413.225433
-12.341423	-0.065000	478.627014
-11.341423	-0.065000	478.378448
-10.341423	-0.065000	164.716034
-9.341423	-0.065000	63.070454
-8.341423	-0.065000	118.448441
-7.341423	-0.065000	86.639366
-6.341423	-0.065000	157.725189
-5.341423	-0.065000	559.751953
-4.341423	-0.065000	227.560913
-3.341423	-0.065000	286.409210
-2.341423	-0.065000	707.617859
-1.341423	-0.065000	848.878479
-0.341423	-0.065000	777.695679
0.658577	-0.065000	794.613403
1.658577	-0.065000	633.134155
2.658577	-0.065000	115.764252
3.658577	-0.065000	132.839478
4.658577	-0.065000	125.497437
5.658577	-0.065000	241.655502
6.658577	-0.065000	231.916763
7.658577	-0.065000	448.484100
8.658577	-0.065000	365.879517
9.658577	-0.065000	426.365143
10.658577	-0.065000	353.577576
11.658577	-0.065000	769.500000
12.658577	-0.065000	615.188965
13.658577	-0.065000	386.085022
14.658577	-0.065000	301.201569
15.658577	-0.065000	421.221863
16.658577	-0.065000	327.030609
17.658577	-0.065000	149.722778
18.658577	-0.065000	39.645229
19.658577	-0.065000	75.686920
20.658577	-0.065000	481.143158
21.658577	-0.065000	619.205505
22.658577	-0.065000	448.206024
23.658577	-0.065000	51.669327
24.658577	-0.065000	63.981464
-39.341423	0.935000	8.287875
-38.341423	0.935000	6.411115
-37.341423	0.935000	5.992094
-36.341423	0.935000	21.783939
-35.341423	0.935000	28.422285
-34.341423	0.935000	63.343975
-33.341423	0.935000	78.864227
-32.341423	0.935000	66.189964
-31.341423	0.935000	104.339325
-30.341423	0.935000	43.797485
-29.341423	0.935000	6.145000
-28.341423	0.935000	0.000000
-27.341423	0.935000	9.909968
-26.341423	0.935000	66.320763
-25.341423	0.935000	685.600220
-24.341423	0.935000	432.934235
-23.341423	0.935000	245.402359
-22.341423	0.935000	634.450317
-21.341423	0.935000	374.882538
-20.341423	0.935000	224.870499
-19.341423	0.935000	320.173798
-18.341423	0.935000	100.731941
-17.341423	0.935000	113.964676
-16.341423	0.935000	87.473083
-15.341423	0.935000	107.947632
-14.341423	0.935000	682.460938
-13.341423	0.935000	501.759613
-12.341423	0.935000	543.425476
-11.341423	0.935000	488.636780
-10.341423	0.935000	521.002136
-9.341423	0.935000	153.835831
-8.341423	0.935000	97.762299
-7.341423	0.935000	66.202599
-6.341423	0.935000	149.472244
-5.341423	0.935000	639.812195
-4.341423	0.935000	776.489624
-3.341423	0.935000	282.149048
-2.341423	0.935000	399.438293
-1.341423	0.935000	793.278259
-0.341423	0.935000	788.932617
0.658577	0.935000	688.402588
1.658577	0.935000	145.107880
2.658577	0.935000	138.716278
3.658577	0.935000	138.613861
4.658577	0.935000	142.042450
5.658577	0.935000	285.074341
6.658577	0.935000	375.066223
7.658577	0.935000	288.858795
8.658577	0.935000	461.666382
9.658577	0.935000	657.715210
10.658577	0.935000	456.489075
11.658577	0.935000	471.497833
12.658577	0.935000	571.605103
13.658577	0.935000	470.019775
14.658577	0.935000	211.676361
15.658577	0.935000	293.457947
16.658577	0.935000	216.726624
17.658577	0.935000	262.488770
18.658577	0.935000	286.313507
19.658577	0.935000	455.296356
20.658577	0.935000	632.844299
21.658577	0.935000	657.976318
22.658577	0.935000	735.996033
23.658577	0.935000	279.970825
24.658577	0.935000	73.318024
-39.341423	1.935000	20.790289
-38.341423	1.935000	20.722914
-37.341423	1.935000	35.547516
-36.341423	1.935000	128.403976
-35.341423	1.935000	238.153336
-34.341423	1.935000	55.254539
-33.341423	1.935000	125.632393
-32.341423	1.935000	489.280243
-31.341423	1.935000	155.710510
-30.341423	1.935000	104.291107
-29.341423	1.935000	86.089699
-28.341423	1.935000	15.419607
-27.341423	1.935000	34.522144
-26.341423	1.935000	443.322998
-25.341423	1.935000	418.930054
-24.341423	1.935000	40.503967
-23.341423	1.935000	88.143967
-22.341423	1.935000	556.210571
-21.341423	1.935000	741.587097
-20.341423	1.935000	671.122925
-19.341423	1.935000	83.020348
-18.341423	1.935000	19.976797
-17.341423	1.935000	19.583363
-16.341423	1.935000	0.000000
-15.341423	1.935000	46.465668
-14.341423	1.935000	688.835754
-13.341423	1.935000	782.012451
-12.341423	1.935000	0.000000
-11.341423	1.935000	509.642059
-10.341423	1.935000	560.631897
-9.341423	1.935000	417.190277
-8.341423	1.935000	335.211700
-7.341423	1.935000	0.000000
-6.341423	1.935000	197.479675
-5.341423	1.935000	768.653015
-4.341423	1.935000	724.115601
-3.341423	1.935000	845.175537
-2.341423	1.935000	679.632324
-1.341423	1.935000	698.487488
-0.341423	1.935000	707.433044
0.658577	1.935000	388.332581
1.658577	1.935000	33.955948
2.658577	1.935000	148.007690
3.658577	1.935000	73.882652
4.658577	1.935000	65.752892
5.658577	1.935000	487.713654
6.658577	1.935000	748.171143
7.658577	1.935000	536.354980
8.658577	1.935000	256.560547
9.658577	1.935000	688.563171
10.658577	1.935000	724.185791
11.658577	1.935000	703.734192
12.658577	1.935000	757.742249
13.658577	1.935000	520.909119
14.658577	1.935000	454.311218
15.658577	1.935000	220.090500
16.658577	1.935000	0.000000
17.658577	1.935000	232.447128
18.658577	1.935000	123.865959
19.658577	1.935000	198.709671
20.658577	1.935000	505.546936
21.658577	1.935000	587.027466
22.658577	1.935000	578.638062
23.658577	1.935000	430.440643
24.658577	1.935000	558.857178
-39.341423	2.935000	36.248497
-38.341423	2.935000	81.461647
-37.341423	2.935000	227.614670
-36.341423	2.935000	135.101273
-35.341423	2.935000	119.557755
-34.341423	2.935000	21.290308
-33.341423	2.935000	61.695194
-32.341423	2.935000	451.897278
-31.341423	2.935000	155.353317
-30.341423	2.935000	0.000000
-29.341423	2.935000	302.846802
-28.341423	2.935000	224.417297
-27.341423	2.935000	417.719513
-26.341423	2.935000	494.695404
-25.341423	2.935000	482.114624
-24.341423	2.935000	0.000000
-23.341423	2.935000	0.000000
-22.341423	2.935000	82.280533
-21.341423	2.935000	665.884338
-20.341423	2.935000	334.800446
-19.341423	2.935000	48.728161
-18.341423	2.935000	0.000000
-17.341423	2.935000	16.905735
-16.341423	2.935000	0.000000
-15.341423	2.935000	6.721104
-14.341423	2.935000	53.738979
-13.341423	2.935000	254.741043
-12.341423	2.935000	583.658569
-11.341423	2.935000	486.425476
-10.341423	2.935000	746.588074
-9.341423	2.935000	544.493591
-8.341423	2.935000	353.075897
-7.341423	2.935000	166.228378
-6.341423	2.935000	174.016159
-5.341423	2.935000	769.865662
-4.341423	2.935000	782.624023
-3.341423	2.935000	789.355286
-2.341423	2.935000	567.625610
-1.341423	2.935000	601.467346
-0.341423	2.935000	625.438049
0.658577	2.935000	695.553589
1.658577	2.935000	245.291000
2.658577	2.935000	152.180832
3.658577	2.935000	75.887772
4.658577	2.935000	134.994644
5.658577	2.935000	225.787552
6.658577	2.935000	19.828157
7.658577	2.935000	57.020000
8.658577	2.935000	599.031555
9.658577	2.935000	740.766602
10.658577	2.935000	739.298645
11.658577	2.935000	0.000000
12.658577	2.935000	399.509399
13.658577	2.935000	466.187805
14.658577	2.935000	759.424744
15.658577	2.935000	227.677185
16.658577	2.935000	112.452217
17.658577	2.935000	535.570496
18.658577	2.935000	126.594513
19.658577	2.935000	45.212879
20.658577	2.935000	94.291779
21.658577	2.935000	493.662750
22.658577	2.935000	661.331848
23.658577	2.935000	634.910278
24.658577	2.935000	0.000000
-39.341423	3.935000	221.934067
-38.341423	3.935000	257.417267
-37.341423	3.935000	0.692986
-36.341423	3.935000	169.165329
-35.341423	3.935000	166.859787
-34.341423	3.935000	29.693209
-33.341423	3.935000	25.864910
-32.341423	3.935000	121.354866
-31.341423	3.935000	209.087692
-30.341423	3.935000	296.894897
-29.341423	3.935000	285.254822
-28.341423	3.935000	409.397064
-27.341423	3.935000	357.261230
-26.341423	3.935000	354.029053
-25.341423	3.935000	607.622253
-24.341423	3.935000	266.541168
-23.341423	3.935000	0.000000
-22.341423	3.935000	86.532372
-21.341423	3.935000	649.521912
-20.341423	3.935000	630.598511
-19.341423	3.935000	227.984573
-18.341423	3.935000	432.062134
-17.341423	3.935000	430.039703
-16.341423	3.935000	22.273691
-15.341423	3.935000	88.101463
-14.341423	3.935000	14.464369
-13.341423	3.935000	51.937611
-12.341423	3.935000	173.208405
-11.341423	3.935000	0.000000
-10.341423	3.935000	557.985840
-9.341423	3.935000	189.915619
-8.341423	3.935000	96.967934
-7.341423	3.935000	134.090866
-6.341423	3.935000	179.889938
-5.341423	3.935000	712.895142
-4.341423	3.935000	118.648582
-3.341423	3.935000	611.659424
-2.341423	3.935000	859.796265
-1.341423	3.935000	780.064697
-0.341423	3.935000	745.012146
0.658577	3.935000	792.042908
1.658577	3.935000	540.328125
2.658577	3.935000	232.343933
3.658577	3.935000	99.987808
4.658577	3.935000	148.751205
5.658577	3.935000	319.241882
6.658577	3.935000	332.839935
7.658577	3.935000	368.576050
8.658577	3.935000	888.682190
9.658577	3.935000	743.304993
10.658577	3.935000	0.000000
11.658577	3.935000	131.830307
12.658577	3.935000	154.389832
13.658577	3.935000	261.090546
14.658577	3.935000	697.059937
15.658577	3.935000	186.412277
16.658577	3.935000	127.345360
17.658577	3.935000	518.729980
18.658577	3.935000	749.519775
19.658577	3.935000	787.215027
20.658577	3.935000	667.297729
21.658577	3.935000	580.200562
22.658577	3.935000	623.078369
23.658577	3.935000	118.155846
24.658577	3.935000	11.746317
-39.341423	4.935000	694.015198
-38.341423	4.935000	312.580109
-37.341423	4.935000	641.285339
-36.341423	4.935000	896.540588
-35.341423	4.935000	876.018311
-34.341423	4.935000	323.891113
-33.341423	4.935000	41.987652
-32.341423	4.935000	152.434830
-31.341423	4.935000	201.653519
-30.341423	4.935000	248.715424
-29.341423	4.935000	310.730042
-28.341423	4.935000	163.581726
-27.341423	4.935000	219.072601
-26.341423	4.935000	134.058899
-25.341423	4.935000	533.131958
-24.341423	4.935000	0.000000
-23.341423	4.935000	114.579720
-22.341423	4.935000	156.995941
-21.341423	4.935000	145.209366
-20.341423	4.935000	145.503036
-19.341423	4.935000	598.134949
-18.341423	4.935000	597.182495
-17.341423	4.935000	620.066956
-16.341423	4.935000	489.304138
-15.341423	4.935000	394.641174
-14.341423	4.935000	200.248596
-13.341423	4.935000	34.502487
-12.341423	4.935000	97.539375
-11.341423	4.935000	283.728821
-10.341423	4.935000	155.587631
-9.341423	4.935000	385.126099
-8.341423	4.935000	144.020981
-7.341423	4.935000	173.589462
-6.341423	4.935000	55.679432
-5.341423	4.935000	30.695967
-4.341423	4.935000	35.304829
-3.341423	4.935000	630.635376
-2.341423	4.935000	692.468994
-1.341423	4.935000	673.988342
-0.341423	4.935000	693.538818
0.658577	4.935000	755.713013
1.658577	4.935000	644.313599
2.658577	4.935000	300.111694
3.658577	4.935000	141.920502
4.658577	4.935000	87.080376
5.658577	4.935000	248.087158
6.658577	4.935000	276.351105
7.658577	4.935000	267.254547
8.658577	4.935000	839.113708
9.658577	4.935000	929.935242
10.658577	4.935000	512.664001
11.658577	4.935000	121.139694
12.658577	4.935000	417.343658
13.658577	4.935000	195.215698
14.658577	4.935000	441.641266
15.658577	4.935000	715.570251
16.658577	4.935000	352.471588
17.658577	4.935000	389.424988
18.658577	4.935000	780.520874
19.658577	4.935000	762.127319
20.658577	4.935000	284.882416
21.658577	4.935000	702.238892
22.658577	4.935000	558.651245
23.658577	4.935000	275.584900
24.658577	4.935000	27.904673
-39.341423	5.935000	770.574585
-38.341423	5.935000	675.150146
-37.341423	5.935000	744.365356
-36.341423	5.935000	652.849487
-35.341423	5.935000	582.616028
-34.341423	5.935000	506.317902
-33.341423	5.935000	232.614182
-32.341423	5.935000	437.102631
-31.341423	5.935000	69.387131
-30.341423	5.935000	14.785959
-29.341423	5.935000	40.072609
-28.341423	5.935000	13.071281
-27.341423	5.935000	35.492241
-26.341423	5.935000	300.330505
-25.341423	5.935000	609.023315
-24.341423	5.935000	553.411011
-23.341423	5.935000	176.167572
-22.341423	5.935000	50.699535
-21.341423	5.935000	34.155865
-20.341423	5.935000	221.599060
-19.341423	5.935000	753.151306
-18.341423	5.935000	539.900757
-17.341423	5.935000	476.684845
-16.341423	5.935000	582.625916
-15.341423	5.935000	555.417969
-14.341423	5.935000	406.883057
-13.341423	5.935000	46.500244
-12.341423	5.935000	125.082520
-11.341423	5.935000	345.032806
-10.341423	5.935000	608.664917
-9.341423	5.935000	0.000000
-8.341423	5.935000	349.494720
-7.341423	5.935000	70.022011
-6.341423	5.935000	230.874817
-5.341423	5.935000	5.264508
-4.341423	5.935000	17.913456
-3.341423	5.935000	563.430664
-2.341423	5.935000	711.889893
-1.341423	5.935000	655.275146
-0.341423	5.935000	665.568054
0.658577	5.935000	768.195496
1.658577	5.935000	755.070496
2.658577	5.935000	249.921158
3.658577	5.935000	190.899704
4.658577	5.935000	90.747650
5.658577	5.935000	122.168015
6.658577	5.935000	144.699615
7.658577	5.935000	142.981720
8.658577	5.935000	140.063156
9.658577	5.935000	586.786621
10.658577	5.935000	955.004211
11.658577	5.935000	459.841034
12.658577	5.935000	160.208588
13.658577	5.935000	212.337601
14.658577	5.935000	410.889313
15.658577	5.935000	625.572693
16.658577	5.935000	86.960892
17.658577	5.935000	219.818588
18.658577	5.935000	775.494629
19.658577	5.935000	600.463196
20.658577	5.935000	659.062988
21.658577	5.935000	861.250854
22.658577	5.935000	661.392517
23.658577	5.935000	344.540558
24.658577	5.935000	0.000000
-39.341423	6.935000	773.985474
-38.341423	6.935000	819.587463
-37.341423	6.935000	665.496033
-36.341423	6.935000	676.139709
-35.341423	6.935000	537.412109
-34.341423	6.935000	513.253479
-33.341423	6.935000	422.713593
-32.341423	6.935000	521.697815
-31.341423	6.935000	127.967094
-30.341423	6.935000	598.319702
-29.341423	6.935000	273.254700
-28.341423	6.935000	5.212420
-27.341423	6.935000	55.087986
-26.341423	6.935000	138.974670
-25.341423	6.935000	362.419769
-24.341423	6.935000	844.014160
-23.341423	6.935000	84.524254
-22.341423	6.935000	71.628677
-21.341423	6.935000	102.034348
-20.341423	6.935000	647.327881
-19.341423	6.935000	751.781067
-18.341423	6.935000	638.657532
-17.341423	6.935000	562.754028
-16.341423	6.935000	624.160461
-15.341423	6.935000	597.592773
-14.341423	6.935000	489.388306
-13.341423	6.935000	493.940979
-12.341423	6.935000	106.109970
-11.341423	6.935000	75.732643
-10.341423	6.935000	114.685211
-9.341423	6.935000	174.954514
-8.341423	6.935000	308.555695
-7.341423	6.935000	162.340042
-6.341423	6.935000	131.959442
-5.341423	6.935000	96.499664
-4.341423	6.935000	81.577805
-3.341423	6.935000	185.923340
-2.341423	6.935000	744.109314
-1.341423	6.935000	706.321655
-0.341423	6.935000	668.520081
0.658577	6.935000	722.382446
1.658577	6.935000	679.722290
2.658577	6.935000	286.248627
3.658577	6.935000	46.193523
4.658577	6.935000	65.052208
5.658577	6.935000	109.057373
6.658577	6.935000	286.710815
7.658577	6.935000	0.000000
8.658577	6.935000	130.824417
9.658577	6.935000	148.503769
10.658577	6.935000	574.638184
11.658577	6.935000	394.325439
12.658577	6.935000	552.386475
13.658577	6.935000	427.691467
14.658577	6.935000	64.447166
15.658577	6.935000	284.231628
16.658577	6.935000	241.231369
17.658577	6.935000	215.377335
18.658577	6.935000	778.076660
19.658577	6.935000	217.868408
20.658577	6.935000	772.638794
21.658577	6.935000	821.531860
22.658577	6.935000	227.237030
23.658577	6.935000	508.381348
24.658577	6.935000	355.759949
-39.341423	7.935000	718.783325
-38.341423	7.935000	716.755127
-37.341423	7.935000	696.313416
-36.341423	7.935000	629.315552
-35.341423	7.935000	615.667603
-34.341423	7.935000	554.232300
-33.341423	7.935000	481.018982
-32.341423	7.935000	551.450256
-31.341423	7.935000	588.889465
-30.341423	7.935000	313.478363
-29.341423	7.935000	482.382965
-28.341423	7.935000	103.759171
-27.341423	7.935000	136.535568
-26.341423	7.935000	132.798706
-25.341423	7.935000	214.129089
-24.341423	7.935000	146.385880
-23.341423	7.935000	109.508202
-22.341423	7.935000	57.904636
-21.341423	7.935000	64.250671
-20.341423	7.935000	169.801315
-19.341423	7.935000	420.896393
-18.341423	7.935000	372.686371
-17.341423	7.935000	276.037537
-16.341423	7.935000	423.269379
-15.341423	7.935000	882.650513
-14.341423	7.935000	398.024170
-13.341423	7.935000	0.000000
-12.341423	7.935000	626.154724
-11.341423	7.935000	90.687752
-10.341423	7.935000	95.311684
-9.341423	7.935000	89.406616
-8.341423	7.935000	98.729652
-7.341423	7.935000	101.070045
-6.341423	7.935000	139.000443
-5.341423	7.935000	344.214935
-4.341423	7.935000	144.484314
-3.341423	7.935000	180.527023
-2.341423	7.935000	546.063843
-1.341423	7.935000	717.090637
-0.341423	7.935000	720.877991
0.658577	7.935000	780.864319
1.658577	7.935000	429.128906
2.658577	7.935000	436.935883
3.658577	7.935000	184.326981
4.658577	7.935000	172.326385
5.658577	7.935000	100.024895
6.658577	7.935000	66.574562
7.658577	7.935000	125.080948
8.658577	7.935000	317.458405
9.658577	7.935000	242.172318
10.658577	7.935000	416.650604
11.658577	7.935000	320.054413
12.658577	7.935000	0.000000
13.658577	7.935000	424.570343
14.658577	7.935000	358.781738
15.658577	7.935000	276.365479
16.658577	7.935000	236.037979
17.658577	7.935000	289.659241
18.658577	7.935000	280.263306
19.658577	7.935000	16.538832
20.658577	7.935000	213.521057
21.658577	7.935000	586.878540
22.658577	7.935000	490.688232
23.658577	7.935000	269.640594
24.658577	7.935000	698.228271
-39.341423	8.935000	687.115784
-38.341423	8.935000	620.190125
-37.341423	8.935000	568.078247
-36.341423	8.935000	582.367432
-35.341423	8.935000	658.265625
-34.341423	8.935000	745.165466
-33.341423	8.935000	661.677734
-32.341423	8.935000	612.591736
-31.341423	8.935000	662.203308
-30.341423	8.935000	348.654297
-29.341423	8.935000	329.392059
-28.341423	8.935000	374.585144
-27.341423	8.935000	200.125351
-26.341423	8.935000	196.809387
-25.341423	8.935000	203.663071
-24.341423	8.935000	135.219345
-23.341423	8.935000	85.128044
-22.341423	8.935000	97.165344
-21.341423	8.935000	78.066101
-20.341423	8.935000	130.883865
-19.341423	8.935000	216.452820
-18.341423	8.935000	216.491623
-17.341423	8.935000	617.311340
-16.341423	8.935000	629.644043
-15.341423	8.935000	964.723938
-14.341423	8.935000	476.279907
-13.341423	8.935000	331.185730
-12.341423	8.935000	391.142487
-11.341423	8.935000	58.104942
-10.341423	8.935000	88.253624
-9.341423	8.935000	91.932770
-8.341423	8.935000	86.877716
-7.341423	8.935000	113.998901
-6.341423	8.935000	295.108673
-5.341423	8.935000	155.636520
-4.341423	8.935000	179.289719
-3.341423	8.935000	243.275269
-2.341423	8.935000	478.173248
-1.341423	8.935000	786.416809
-0.341423	8.935000	791.466187
0.658577	8.935000	728.912415
1.658577	8.935000	325.350830
2.658577	8.935000	234.922089
3.658577	8.935000	92.227043
4.658577	8.935000	291.649139
5.658577	8.935000	134.002106
6.658577	8.935000	131.068787
7.658577	8.935000	113.314583
8.658577	8.935000	101.577553
9.658577	8.935000	186.939026
10.658577	8.935000	180.570602
11.658577	8.935000	133.856766
12.658577	8.935000	333.901093
13.658577	8.935000	44.992416
14.658577	8.935000	306.210938
15.658577	8.935000	37.742214
16.658577	8.935000	62.928993
17.658577	8.935000	466.671631
18.658577	8.935000	13.823174
19.658577	8.935000	0.000000
20.658577	8.935000	4.803925
21.658577	8.935000	33.121784
22.658577	8.935000	26.602045
23.658577	8.935000	22.938890
24.658577	8.935000	180.290985
-39.341423	9.935000	575.398926
-38.341423	9.935000	496.895081
-37.341423	9.935000	473.346344
-36.341423	9.935000	491.588165
-35.341423	9.935000	603.540222
-34.341423	9.935000	597.466064
-33.341423	9.935000	509.452789
-32.341423	9.935000	630.467163
-31.341423	9.935000	725.027283
-30.341423	9.935000	562.614929
-29.341423	9.935000	0.000000
-28.341423	9.935000	553.081055
-27.341423	9.935000	264.692261
-26.341423	9.935000	151.114929
-25.341423	9.935000	184.778732
-24.341423	9.935000	68.232498
-23.341423	9.935000	165.543167
-22.341423	9.935000	176.219330
-21.341423	9.935000	224.163239
-20.341423	9.935000	183.530060
-19.341423	9.935000	242.592819
-18.341423	9.935000	233.745422
-17.341423	9.935000	568.597595
-16.341423	9.935000	597.820801
-15.341423	9.935000	537.024963
-14.341423	9.935000	677.749817
-13.341423	9.935000	464.395416
-12.341423	9.935000	182.748932
-11.341423	9.935000	55.450047
-10.341423	9.935000	89.985970
-9.341423	9.935000	78.861923
-8.341423	9.935000	106.116692
-7.341423	9.935000	110.550446
-6.341423	9.935000	816.303650
-5.341423	9.935000	734.528259
-4.341423	9.935000	0.000000
-3.341423	9.935000	263.544983
-2.341423	9.935000	307.811157
-1.341423	9.935000	686.604675
-0.341423	9.935000	825.891724
0.658577	9.935000	403.740723
1.658577	9.935000	182.401276
2.658577	9.935000	149.376633
3.658577	9.935000	124.712746
4.658577	9.935000	148.338638
5.658577	9.935000	62.347454
6.658577	9.935000	46.594845
7.658577	9.935000	116.798729
8.658577	9.935000	99.059113
9.658577	9.935000	202.330399
10.658577	9.935000	186.444626
11.658577	9.935000	190.908310
12.658577	9.935000	156.556488
13.658577	9.935000	11.690167
14.658577	9.935000	28.556437
15.658577	9.935000	25.644962
16.658577	9.935000	0.000000
17.658577	9.935000	0.000000
18.658577	9.935000	0.000000
19.658577	9.935000	2.395608
20.658577	9.935000	50.075726
21.658577	9.935000	219.340332
22.658577	9.935000	65.630455
23.658577	9.935000	77.066307
24.658577	9.935000	18.519501
-39.341423	10.935000	387.872498
-38.341423	10.935000	455.339874
-37.341423	10.935000	482.948151
-36.341423	10.935000	551.400024
-35.341423	10.935000	557.288940
-34.341423	10.935000	521.764465
-33.341423	10.935000	470.322876
-32.341423	10.935000	540.822571
-31.341423	10.935000	767.411987
-30.341423	10.935000	713.109375
-29.341423	10.935000	627.805054
-28.341423	10.935000	552.480530
-27.341423	10.935000	147.631882
-26.341423	10.935000	150.047928
-25.341423	10.935000	53.225517
-24.341423	10.935000	7.252113
-23.341423	10.935000	88.388458
-22.341423	10.935000	219.535583
-21.341423	10.935000	114.626999
-20.341423	10.935000	252.745255
-19.341423	10.935000	368.903534
-18.341423	10.935000	355.136688
-17.341423	10.935000	327.225891
-16.341423	10.935000	167.211533
-15.341423	10.935000	601.687866
-14.341423	10.935000	494.787567
-13.341423	10.935000	399.413239
-12.341423	10.935000	55.280209
-11.341423	10.935000	38.792625
-10.341423	10.935000	73.340523
-9.341423	10.935000	94.309685
-8.341423	10.935000	102.656761
-7.341423	10.935000	0.000000
-6.341423	10.935000	669.452087
-5.341423	10.935000	802.031677
-4.341423	10.935000	692.906189
-3.341423	10.935000	119.871315
-2.341423	10.935000	206.856522
-1.341423	10.935000	0.000000
-0.341423	10.935000	679.775269
0.658577	10.935000	511.027161
1.658577	10.935000	230.424896
2.658577	10.935000	166.967300
3.658577	10.935000	0.000000
4.658577	10.935000	83.668549
5.658577	10.935000	75.211433
6.658577	10.935000	99.046463
7.658577	10.935000	0.000000
8.658577	10.935000	57.940277
9.658577	10.935000	67.548424
10.658577	10.935000	54.876648
11.658577	10.935000	161.897339
12.658577	10.935000	184.178940
13.658577	10.935000	19.760382
14.658577	10.935000	12.316394
15.658577	10.935000	4.506432
16.658577	10.935000	2.090991
17.658577	10.935000	169.375107
18.658577	10.935000	27.900780
19.658577	10.935000	0.000000
20.658577	10.935000	270.302399
21.658577	10.935000	220.131439
22.658577	10.935000	333.052429
23.658577	10.935000	47.250252
24.658577	10.935000	57.851974
-39.341423	11.935000	0.000000
-38.341423	11.935000	486.602753
-37.341423	11.935000	506.191803
-36.341423	11.935000	562.359924
-35.341423	11.935000	518.279785
-34.341423	11.935000	460.558533
-33.341423	11.935000	0.000000
-32.341423	11.935000	492.429016
-31.341423	11.935000	733.865845
-30.341423	11.935000	770.545166
-29.341423	11.935000	765.614563
-28.341423	11.935000	700.117554
-27.341423	11.935000	44.564331
-26.341423	11.935000	160.069519
-25.341423	11.935000	14.587226
-24.341423	11.935000	10.992914
-23.341423	11.935000	230.038162
-22.341423	11.935000	235.504898
-21.341423	11.935000	151.863174
-20.341423	11.935000	152.326187
-19.341423	11.935000	443.906342
-18.341423	11.935000	215.847488
-17.341423	11.935000	128.819000
-16.341423	11.935000	159.483871
-15.341423	11.935000	0.000000
-14.341423	11.935000	545.706116
-13.341423	11.935000	406.552704
-12.341423	11.935000	64.322144
-11.341423	11.935000	0.000000
-10.341423	11.935000	20.042971
-9.341423	11.935000	95.304932
-8.341423	11.935000	116.333099
-7.341423	11.935000	151.405273
-6.341423	11.935000	135.475174
-5.341423	11.935000	701.287415
-4.341423	11.935000	604.055176
-3.341423	11.935000	261.721588
-2.341423	11.935000	101.849434
-1.341423	11.935000	679.289551
-0.341423	11.935000	762.824524
0.658577	11.935000	255.225601
1.658577	11.935000	142.588287
2.658577	11.935000	113.912727
3.658577	11.935000	46.488697
4.658577	11.935000	32.799309
5.658577	11.935000	114.534309
6.658577	11.935000	515.682556
7.658577	11.935000	0.000000
8.658577	11.935000	649.349304
9.658577	11.935000	178.026855
10.658577	11.935000	278.377655
11.658577	11.935000	195.114105
12.658577	11.935000	419.112183
13.658577	11.935000	82.297188
14.658577	11.935000	2.079566
15.658577	11.935000	0.244508
16.658577	11.935000	34.760639
17.658577	11.935000	3.013289
18.658577	11.935000	3.373399
19.658577	11.935000	4.444345
20.658577	11.935000	50.101513
21.658577	11.935000	163.751328
22.658577	11.935000	328.043488
23.658577	11.935000	323.023743
24.658577	11.935000	406.213745
-39.341423	12.935000	515.668518
-38.341423	12.935000	577.601501
-37.341423	12.935000	583.405884
-36.341423	12.935000	601.659363
-35.341423	12.935000	571.131470
-34.341423	12.935000	543.658081
-33.341423	12.935000	537.972900
-32.341423	12.935000	509.267853
-31.341423	12.935000	600.220642
-30.341423	12.935000	793.178101
-29.341423	12.935000	805.240601
-28.341423	12.935000	463.609833
-27.341423	12.935000	89.968384
-26.341423	12.935000	39.577225
-25.341423	12.935000	3.603499
-24.341423	12.935000	223.163651
-23.341423	12.935000	416.507660
-22.341423	12.935000	599.045349
-21.341423	12.935000	380.874054
-20.341423	12.935000	200.504959
-19.341423	12.935000	519.397217
-18.341423	12.935000	172.310501
-17.341423	12.935000	148.154297
-16.341423	12.935000	177.005829
-15.341423	12.935000	525.257690
-14.341423	12.935000	471.394104
-13.341423	12.935000	261.280762
-12.341423	12.935000	81.431534
-11.341423	12.935000	45.829033
-10.341423	12.935000	34.698437
-9.341423	12.935000	99.196838
-8.341423	12.935000	107.100197
-7.341423	12.935000	164.489990
-6.341423	12.935000	20.994074
-5.341423	12.935000	198.626099
-4.341423	12.935000	672.543945
-3.341423	12.935000	413.950989
-2.341423	12.935000	162.810776
-1.341423	12.935000	257.122253
-0.341423	12.935000	320.030975
0.658577	12.935000	258.720123
1.658577	12.935000	99.274986
2.658577	12.935000	186.628082
3.658577	12.935000	69.210625
4.658577	12.935000	64.740128
5.658577	12.935000	191.279663
6.658577	12.935000	731.124329
7.658577	12.935000	731.397705
8.658577	12.935000	0.000000
9.658577	12.935000	56.012234
10.658577	12.935000	214.165527
11.658577	12.935000	304.458527
12.658577	12.935000	233.129578
13.658577	12.935000	152.742706
14.658577	12.935000	3.202105
15.658577	12.935000	0.000000
16.658577	12.935000	0.000000
17.658577	12.935000	0.000000
18.658577	12.935000	8.190636
19.658577	12.935000	0.000000
20.658577	12.935000	0.000000
21.658577	12.935000	185.555298
22.658577	12.935000	64.398376
23.658577	12.935000	173.850449
24.658577	12.935000	62.928692
-39.341423	13.935000	591.362915
-38.341423	13.935000	648.701416
-37.341423	13.935000	650.369629
-36.341423	13.935000	598.237793
-35.341423	13.935000	629.949646
-34.341423	13.935000	642.625549
-33.341423	13.935000	512.242676
-32.341423	13.935000	462.337189
-31.341423	13.935000	569.845886
-30.341423	13.935000	698.280273
-29.341423	13.935000	595.960510
-28.341423	13.935000	165.159241
-27.341423	13.935000	158.076584
-26.341423	13.935000	129.276413
-25.341423	13.935000	43.253307
-24.341423	13.935000	204.684235
-23.341423	13.935000	0.000000
-22.341423	13.935000	242.376068
-21.341423	13.935000	450.335846
-20.341423	13.935000	304.475372
-19.341423	13.935000	375.943817
-18.341423	13.935000	525.017639
-17.341423	13.935000	106.416763
-16.341423	13.935000	174.520233
-15.341423	13.935000	385.687134
-14.341423	13.935000	792.674561
-13.341423	13.935000	550.841492
-12.341423	13.935000	147.280365
-11.341423	13.935000	363.219330
-10.341423	13.935000	48.838467
-9.341423	13.935000	279.342010
-8.341423	13.935000	106.421272
-7.341423	13.935000	147.284454
-6.341423	13.935000	302.931854
-5.341423	13.935000	273.403534
-4.341423	13.935000	403.352936
-3.341423	13.935000	417.001617
-2.341423	13.935000	99.320442
-1.341423	13.935000	129.311737
-0.341423	13.935000	273.036774
0.658577	13.935000	238.839828
1.658577	13.935000	94.841522
2.658577	13.935000	186.450546
3.658577	13.935000	57.227909
4.658577	13.935000	0.000000
5.658577	13.935000	15.194585
6.658577	13.935000	339.712585
7.658577	13.935000	602.267761
8.658577	13.935000	444.743256
9.658577	13.935000	222.506409
10.658577	13.935000	212.955246
11.658577	13.935000	132.886398
12.658577	13.935000	227.946686
13.658577	13.935000	22.684351
14.658577	13.935000	0.000000
15.658577	13.935000	0.000000
16.658577	13.935000	6.333269
17.658577	13.935000	13.623111
18.658577	13.935000	7.362113
19.658577	13.935000	0.000000
20.658577	13.935000	24.424435
21.658577	13.935000	0.000000
22.658577	13.935000	18.022625
23.658577	13.935000	24.313587
24.658577	13.935000	293.867401
-39.341423	14.935000	761.301941
-38.341423	14.935000	749.852539
-37.341423	14.935000	712.243469
-36.341423	14.935000	720.376892
-35.341423	14.935000	749.405029
-34.341423	14.935000	525.265503
-33.341423	14.935000	445.730957
-32.341423	14.935000	478.001648
-31.341423	14.935000	480.223602
-30.341423	14.935000	489.668579
-29.341423	14.935000	376.021240
-28.341423	14.935000	163.494324
-27.341423	14.935000	165.198700
-26.341423	14.935000	142.827362
-25.341423	14.935000	130.858124
-24.341423	14.935000	58.534126
-23.341423	14.935000	58.909348
-22.341423	14.935000	144.261841
-21.341423	14.935000	492.151978
-20.341423	14.935000	178.789383
-19.341423	14.935000	347.126801
-18.341423	14.935000	382.386871
-17.341423	14.935000	153.790894
-16.341423	14.935000	742.604431
-15.341423	14.935000	416.988678
-14.341423	14.935000	337.155304
-13.341423	14.935000	498.487793
-12.341423	14.935000	477.680328
-11.341423	14.935000	168.614838
-10.341423	14.935000	12.205974
-9.341423	14.935000	16.122068
-8.341423	14.935000	160.336777
-7.341423	14.935000	472.753235
-6.341423	14.935000	557.341675
-5.341423	14.935000	146.774277
-4.341423	14.935000	154.182404
-3.341423	14.935000	187.410660
-2.341423	14.935000	52.921555
-1.341423	14.935000	326.873871
-0.341423	14.935000	0.000000
0.658577	14.935000	87.650635
1.658577	14.935000	171.089737
2.658577	14.935000	204.195053
3.658577	14.935000	122.138985
4.658577	14.935000	3.793865
5.658577	14.935000	83.103119
6.658577	14.935000	19.274452
7.658577	14.935000	59.810291
8.658577	14.935000	182.660767
9.658577	14.935000	318.543488
10.658577	14.935000	192.290863
11.658577	14.935000	168.084259
12.658577	14.935000	306.059113
13.658577	14.935000	18.840666
14.658577	14.935000	10.023964
15.658577	14.935000	0.000000
16.658577	14.935000	121.096481
17.658577	14.935000	0.000000
18.658577	14.935000	0.930005
19.658577	14.935000	19.021616
20.658577	14.935000	26.815739
21.658577	14.935000	79.473953
22.658577	14.935000	0.000000
23.658577	14.935000	12.294100
24.658577	14.935000	0.690035
-39.341423	15.935000	772.237915
-38.341423	15.935000	785.989136
-37.341423	15.935000	560.020142
-36.341423	15.935000	542.530945
-35.341423	15.935000	530.905273
-34.341423	15.935000	485.178772
-33.341423	15.935000	529.686340
-32.341423	15.935000	582.536865
-31.341423	15.935000	448.457916
-30.341423	15.935000	180.618759
-29.341423	15.935000	283.621338
-28.341423	15.935000	204.606018
-27.341423	15.935000	184.856979
-26.341423	15.935000	172.158356
-25.341423	15.935000	159.460892
-24.341423	15.935000	109.309250
-23.341423	15.935000	19.143183
-22.341423	15.935000	10.897040
-21.341423	15.935000	24.500109
-20.341423	15.935000	75.622177
-19.341423	15.935000	140.199966
-18.341423	15.935000	379.180695
-17.341423	15.935000	551.656433
-16.341423	15.935000	730.672241
-15.341423	15.935000	783.063416
-14.341423	15.935000	803.651062
-13.341423	15.935000	827.717346
-12.341423	15.935000	819.509705
-11.341423	15.935000	539.345947
-10.341423	15.935000	6.981530
-9.341423	15.935000	33.642033
-8.341423	15.935000	11.238767
-7.341423	15.935000	455.740173
-6.341423	15.935000	163.049286
-5.341423	15.935000	49.942986
-4.341423	15.935000	44.020351
-3.341423	15.935000	67.210770
-2.341423	15.935000	125.043991
-1.341423	15.935000	258.362457
-0.341423	15.935000	139.188782
0.658577	15.935000	77.456848
1.658577	15.935000	263.768860
2.658577	15.935000	360.392029
3.658577	15.935000	142.641296
4.658577	15.935000	4.845074
5.658577	15.935000	10.118622
6.658577	15.935000	5.672952
7.658577	15.935000	1.066355
8.658577	15.935000	17.912161
9.658577	15.935000	293.532318
10.658577	15.935000	249.291031
11.658577	15.935000	43.395588
12.658577	15.935000	231.252182
13.658577	15.935000	83.039436
14.658577	15.935000	17.434044
15.658577	15.935000	5.022122
16.658577	15.935000	0.000000
17.658577	15.935000	0.000000
18.658577	15.935000	21.329004
19.658577	15.935000	0.000000
20.658577	15.935000	0.000000
21.658577	15.935000	1.302569
22.658577	15.935000	3.603676
23.658577	15.935000	0.000000
24.658577	15.935000	0.000000
