#XList		#YList		#IList		
-39.341423	-21.065000	1620.635498
-38.341423	-21.065000	1616.829468
-37.341423	-21.065000	1619.145874
-36.341423	-21.065000	1616.942261
-35.341423	-21.065000	1619.891846
-34.341423	-21.065000	1615.956543
-33.341423	-21.065000	1612.549072
-32.341423	-21.065000	1615.798340
-31.341423	-21.065000	1600.000000
-30.341423	-21.065000	1610.685425
-29.341423	-21.065000	1600.041138
-28.341423	-21.065000	1618.785767
-27.341423	-21.065000	1600.000000
-26.341423	-21.065000	1618.498291
-25.341423	-21.065000	1618.435791
-24.341423	-21.065000	1618.962158
-23.341423	-21.065000	1614.291382
-22.341423	-21.065000	1622.019043
-21.341423	-21.065000	1611.611084
-20.341423	-21.065000	1610.311768
-19.341423	-21.065000	1619.421753
-18.341423	-21.065000	1624.015137
-17.341423	-21.065000	1606.009033
-16.341423	-21.065000	1603.440063
-15.341423	-21.065000	1603.909546
-14.341423	-21.065000	1602.218628
-13.341423	-21.065000	1600.000000
-12.341423	-21.065000	1600.000000
-11.341423	-21.065000	1602.148926
-10.341423	-21.065000	1618.912964
-9.341423	-21.065000	1600.000000
-8.341423	-21.065000	1619.219849
-7.341423	-21.065000	1618.696899
-6.341423	-21.065000	1618.253296
-5.341423	-21.065000	1616.946289
-4.341423	-21.065000	1613.468994
-3.341423	-21.065000	1604.557617
-2.341423	-21.065000	1617.734497
-1.341423	-21.065000	1618.469604
-0.341423	-21.065000	1614.597656
0.658577	-21.065000	1616.699219
1.658577	-21.065000	1618.278809
2.658577	-21.065000	1617.633179
3.658577	-21.065000	1617.680054
4.658577	-21.065000	1615.676025
5.658577	-21.065000	1613.597412
6.658577	-21.065000	1618.883423
7.658577	-21.065000	1630.186157
8.658577	-21.065000	1621.484741
9.658577	-21.065000	1600.000000
10.658577	-21.065000	1622.459717
11.658577	-21.065000	1619.050781
12.658577	-21.065000	1617.109497
13.658577	-21.065000	1620.390869
14.658577	-21.065000	1615.789551
15.658577	-21.065000	1613.677979
16.658577	-21.065000	1616.990601
17.658577	-21.065000	1617.626099
18.658577	-21.065000	1616.486572
19.658577	-21.065000	1600.000000
20.658577	-21.065000	1615.535278
21.658577	-21.065000	1617.773926
22.658577	-21.065000	1600.000000
23.658577	-21.065000	1602.162720
24.658577	-21.065000	1626.903442
-39.341423	-20.065000	1613.219727
-38.341423	-20.065000	1618.344116
-37.341423	-20.065000	1616.353638
-36.341423	-20.065000	1616.701660
-35.341423	-20.065000	1617.730713
-34.341423	-20.065000	1616.298828
-33.341423	-20.065000	1616.042725
-32.341423	-20.065000	1611.804077
-31.341423	-20.065000	1606.752075
-30.341423	-20.065000	1609.294067
-29.341423	-20.065000	1610.247803
-28.341423	-20.065000	1617.695313
-27.341423	-20.065000	1612.669556
-26.341423	-20.065000	1616.119751
-25.341423	-20.065000	1613.376953
-24.341423	-20.065000	1618.229004
-23.341423	-20.065000	1618.539673
-22.341423	-20.065000	1608.555786
-21.341423	-20.065000	1613.911377
-20.341423	-20.065000	1615.871338
-19.341423	-20.065000	1617.373535
-18.341423	-20.065000	1617.898804
-17.341423	-20.065000	1602.791992
-16.341423	-20.065000	1602.106934
-15.341423	-20.065000	1601.551392
-14.341423	-20.065000	1600.876221
-13.341423	-20.065000	1601.406982
-12.341423	-20.065000	1604.479004
-11.341423	-20.065000	1609.561890
-10.341423	-20.065000	1619.848755
-9.341423	-20.065000	1616.617676
-8.341423	-20.065000	1619.345581
-7.341423	-20.065000	1619.322632
-6.341423	-20.065000	1619.025757
-5.341423	-20.065000	1618.471558
-4.341423	-20.065000	1608.239380
-3.341423	-20.065000	1604.640137
-2.341423	-20.065000	1612.440186
-1.341423	-20.065000	1616.119263
-0.341423	-20.065000	1616.498779
0.658577	-20.065000	1615.365234
1.658577	-20.065000	1616.965820
2.658577	-20.065000	1622.242065
3.658577	-20.065000	1616.993286
4.658577	-20.065000	1617.037842
5.658577	-20.065000	1617.334961
6.658577	-20.065000	1619.156738
7.658577	-20.065000	1613.011230
8.658577	-20.065000	1600.136475
9.658577	-20.065000	1620.433960
10.658577	-20.065000	1600.000000
11.658577	-20.065000	1620.008179
12.658577	-20.065000	1618.428467
13.658577	-20.065000	1619.102173
14.658577	-20.065000	1618.458984
15.658577	-20.065000	1615.411621
16.658577	-20.065000	1613.441650
17.658577	-20.065000	1615.058350
18.658577	-20.065000	1612.308472
19.658577	-20.065000	1604.798584
20.658577	-20.065000	1602.164795
21.658577	-20.065000	1612.189453
22.658577	-20.065000	1625.916626
23.658577	-20.065000	1619.326782
24.658577	-20.065000	1619.668457
-39.341423	-19.065000	1613.146606
-38.341423	-19.065000	1619.057129
-37.341423	-19.065000	1619.489746
-36.341423	-19.065000	1618.077515
-35.341423	-19.065000	1619.068237
-34.341423	-19.065000	1619.487427
-33.341423	-19.065000	1617.788574
-32.341423	-19.065000	1600.000000
-31.341423	-19.065000	1604.426758
-30.341423	-19.065000	1602.159302
-29.341423	-19.065000	1616.702515
-28.341423	-19.065000	1617.932129
-27.341423	-19.065000	1617.699707
-26.341423	-19.065000	1618.970337
-25.341423	-19.065000	1613.686523
-24.341423	-19.065000	1613.664185
-23.341423	-19.065000	1615.023438
-22.341423	-19.065000	1616.362305
-21.341423	-19.065000	1618.432373
-20.341423	-19.065000	1615.348389
-19.341423	-19.065000	1612.080322
-18.341423	-19.065000	1618.120361
-17.341423	-19.065000	1604.403198
-16.341423	-19.065000	1601.308472
-15.341423	-19.065000	1601.930664
-14.341423	-19.065000	1602.406372
-13.341423	-19.065000	1601.452637
-12.341423	-19.065000	1606.173096
-11.341423	-19.065000	1607.839478
-10.341423	-19.065000	1616.808105
-9.341423	-19.065000	1618.604248
-8.341423	-19.065000	1618.875854
-7.341423	-19.065000	1618.851685
-6.341423	-19.065000	1618.219604
-5.341423	-19.065000	1617.428467
-4.341423	-19.065000	1617.352539
-3.341423	-19.065000	1609.539185
-2.341423	-19.065000	1614.655151
-1.341423	-19.065000	1617.962646
-0.341423	-19.065000	1617.563599
0.658577	-19.065000	1617.301514
1.658577	-19.065000	1616.530762
2.658577	-19.065000	1620.097168
3.658577	-19.065000	1617.419800
4.658577	-19.065000	1617.555298
5.658577	-19.065000	1624.410645
6.658577	-19.065000	1617.498413
7.658577	-19.065000	1609.397705
8.658577	-19.065000	1605.420044
9.658577	-19.065000	1617.205566
10.658577	-19.065000	1600.000000
11.658577	-19.065000	1617.281616
12.658577	-19.065000	1611.180908
13.658577	-19.065000	1616.753174
14.658577	-19.065000	1612.786743
15.658577	-19.065000	1608.661621
16.658577	-19.065000	1615.147095
17.658577	-19.065000	1615.481201
18.658577	-19.065000	1619.215332
19.658577	-19.065000	1614.270020
20.658577	-19.065000	1609.762329
21.658577	-19.065000	1608.834595
22.658577	-19.065000	1619.338013
23.658577	-19.065000	1619.445313
24.658577	-19.065000	1612.668945
-39.341423	-18.065000	1609.895752
-38.341423	-18.065000	1612.348267
-37.341423	-18.065000	1614.514771
-36.341423	-18.065000	1616.924072
-35.341423	-18.065000	1612.365479
-34.341423	-18.065000	1620.171143
-33.341423	-18.065000	1614.414917
-32.341423	-18.065000	1610.623047
-31.341423	-18.065000	1608.163574
-30.341423	-18.065000	1601.551514
-29.341423	-18.065000	1600.000000
-28.341423	-18.065000	1609.792725
-27.341423	-18.065000	1616.099121
-26.341423	-18.065000	1600.000000
-25.341423	-18.065000	1614.906982
-24.341423	-18.065000	1616.020020
-23.341423	-18.065000	1616.782104
-22.341423	-18.065000	1617.597534
-21.341423	-18.065000	1619.325195
-20.341423	-18.065000	1615.987061
-19.341423	-18.065000	1613.317383
-18.341423	-18.065000	1609.641113
-17.341423	-18.065000	1601.779541
-16.341423	-18.065000	1600.000000
-15.341423	-18.065000	1601.387695
-14.341423	-18.065000	1602.396973
-13.341423	-18.065000	1604.784424
-12.341423	-18.065000	1600.604980
-11.341423	-18.065000	1615.100830
-10.341423	-18.065000	1617.312378
-9.341423	-18.065000	1600.000000
-8.341423	-18.065000	1617.919800
-7.341423	-18.065000	1617.795044
-6.341423	-18.065000	1615.987671
-5.341423	-18.065000	1606.497314
-4.341423	-18.065000	1614.896973
-3.341423	-18.065000	1600.000000
-2.341423	-18.065000	1616.978394
-1.341423	-18.065000	1616.166260
-0.341423	-18.065000	1615.592407
0.658577	-18.065000	1614.809814
1.658577	-18.065000	1620.373047
2.658577	-18.065000	1616.018188
3.658577	-18.065000	1618.555664
4.658577	-18.065000	1616.271973
5.658577	-18.065000	1616.652100
6.658577	-18.065000	1603.851318
7.658577	-18.065000	1603.206421
8.658577	-18.065000	1604.491333
9.658577	-18.065000	1600.000000
10.658577	-18.065000	1603.025513
11.658577	-18.065000	1603.780151
12.658577	-18.065000	1606.313843
13.658577	-18.065000	1607.701416
14.658577	-18.065000	1614.678223
15.658577	-18.065000	1616.511108
16.658577	-18.065000	1614.513672
17.658577	-18.065000	1614.880615
18.658577	-18.065000	1618.500366
19.658577	-18.065000	1614.775269
20.658577	-18.065000	1620.573364
21.658577	-18.065000	1605.618896
22.658577	-18.065000	1609.896362
23.658577	-18.065000	1612.322754
24.658577	-18.065000	1606.147095
-39.341423	-17.065000	1620.052124
-38.341423	-17.065000	1610.247803
-37.341423	-17.065000	1604.301025
-36.341423	-17.065000	1610.941895
-35.341423	-17.065000	1609.129395
-34.341423	-17.065000	1617.917969
-33.341423	-17.065000	1618.063843
-32.341423	-17.065000	1617.661377
-31.341423	-17.065000	1617.660400
-30.341423	-17.065000	1600.000000
-29.341423	-17.065000	1600.000000
-28.341423	-17.065000	1612.316650
-27.341423	-17.065000	1615.658813
-26.341423	-17.065000	1616.022339
-25.341423	-17.065000	1610.955444
-24.341423	-17.065000	1614.224976
-23.341423	-17.065000	1615.108765
-22.341423	-17.065000	1614.326294
-21.341423	-17.065000	1612.232788
-20.341423	-17.065000	1610.135254
-19.341423	-17.065000	1602.738770
-18.341423	-17.065000	1604.401855
-17.341423	-17.065000	1602.019897
-16.341423	-17.065000	1600.000000
-15.341423	-17.065000	1603.177246
-14.341423	-17.065000	1603.178101
-13.341423	-17.065000	1600.000000
-12.341423	-17.065000	1600.752441
-11.341423	-17.065000	1610.541992
-10.341423	-17.065000	1616.618286
-9.341423	-17.065000	1617.392822
-8.341423	-17.065000	1611.744141
-7.341423	-17.065000	1612.794922
-6.341423	-17.065000	1601.874023
-5.341423	-17.065000	1607.774536
-4.341423	-17.065000	1608.873291
-3.341423	-17.065000	1618.967529
-2.341423	-17.065000	1617.279175
-1.341423	-17.065000	1607.133423
-0.341423	-17.065000	1615.326294
0.658577	-17.065000	1615.624634
1.658577	-17.065000	1614.760986
2.658577	-17.065000	1614.740845
3.658577	-17.065000	1617.441650
4.658577	-17.065000	1615.654297
5.658577	-17.065000	1614.818970
6.658577	-17.065000	1612.770020
7.658577	-17.065000	1608.465942
8.658577	-17.065000	1600.189209
9.658577	-17.065000	1600.000000
10.658577	-17.065000	1600.000000
11.658577	-17.065000	1600.000000
12.658577	-17.065000	1604.263672
13.658577	-17.065000	1609.280029
14.658577	-17.065000	1618.405029
15.658577	-17.065000	1609.782349
16.658577	-17.065000	1607.982300
17.658577	-17.065000	1615.883667
18.658577	-17.065000	1600.000000
19.658577	-17.065000	1616.660645
20.658577	-17.065000	1607.250732
21.658577	-17.065000	1607.170776
22.658577	-17.065000	1605.416626
23.658577	-17.065000	1616.667480
24.658577	-17.065000	1607.465820
-39.341423	-16.065000	1615.525391
-38.341423	-16.065000	1604.437988
-37.341423	-16.065000	1603.695190
-36.341423	-16.065000	1603.298706
-35.341423	-16.065000	1609.659058
-34.341423	-16.065000	1603.087402
-33.341423	-16.065000	1604.483765
-32.341423	-16.065000	1603.404907
-31.341423	-16.065000	1600.000000
-30.341423	-16.065000	1600.214233
-29.341423	-16.065000	1615.621338
-28.341423	-16.065000	1615.440918
-27.341423	-16.065000	1612.234741
-26.341423	-16.065000	1600.000000
-25.341423	-16.065000	1613.993164
-24.341423	-16.065000	1613.665283
-23.341423	-16.065000	1615.036255
-22.341423	-16.065000	1616.146606
-21.341423	-16.065000	1615.298462
-20.341423	-16.065000	1614.467163
-19.341423	-16.065000	1614.455688
-18.341423	-16.065000	1608.051270
-17.341423	-16.065000	1608.636597
-16.341423	-16.065000	1606.099121
-15.341423	-16.065000	1601.481201
-14.341423	-16.065000	1604.693359
-13.341423	-16.065000	1602.614990
-12.341423	-16.065000	1604.498047
-11.341423	-16.065000	1610.926392
-10.341423	-16.065000	1616.139404
-9.341423	-16.065000	1613.184570
-8.341423	-16.065000	1618.745850
-7.341423	-16.065000	1621.045654
-6.341423	-16.065000	1613.661743
-5.341423	-16.065000	1606.968750
-4.341423	-16.065000	1614.407593
-3.341423	-16.065000	1615.691406
-2.341423	-16.065000	1619.165283
-1.341423	-16.065000	1614.115356
-0.341423	-16.065000	1611.601563
0.658577	-16.065000	1612.213989
1.658577	-16.065000	1612.179077
2.658577	-16.065000	1612.288940
3.658577	-16.065000	1616.848633
4.658577	-16.065000	1616.448608
5.658577	-16.065000	1617.196899
6.658577	-16.065000	1615.070068
7.658577	-16.065000	1600.000000
8.658577	-16.065000	1600.000000
9.658577	-16.065000	1612.963135
10.658577	-16.065000	1600.000000
11.658577	-16.065000	1602.594116
12.658577	-16.065000	1610.474365
13.658577	-16.065000	1612.847412
14.658577	-16.065000	1615.505737
15.658577	-16.065000	1608.143555
16.658577	-16.065000	1604.388550
17.658577	-16.065000	1616.848145
18.658577	-16.065000	1614.251953
19.658577	-16.065000	1615.409912
20.658577	-16.065000	1610.444824
21.658577	-16.065000	1618.657471
22.658577	-16.065000	1609.710449
23.658577	-16.065000	1613.683960
24.658577	-16.065000	1609.501343
-39.341423	-15.065000	1617.146240
-38.341423	-15.065000	1619.817871
-37.341423	-15.065000	1606.057739
-36.341423	-15.065000	1604.649170
-35.341423	-15.065000	1604.478027
-34.341423	-15.065000	1604.538696
-33.341423	-15.065000	1603.881104
-32.341423	-15.065000	1603.921387
-31.341423	-15.065000	1602.400757
-30.341423	-15.065000	1600.000000
-29.341423	-15.065000	1612.124390
-28.341423	-15.065000	1613.407715
-27.341423	-15.065000	1601.306030
-26.341423	-15.065000	1611.731445
-25.341423	-15.065000	1614.543335
-24.341423	-15.065000	1600.000000
-23.341423	-15.065000	1616.390015
-22.341423	-15.065000	1618.222046
-21.341423	-15.065000	1614.380615
-20.341423	-15.065000	1612.658691
-19.341423	-15.065000	1618.314331
-18.341423	-15.065000	1607.117920
-17.341423	-15.065000	1603.602539
-16.341423	-15.065000	1600.000000
-15.341423	-15.065000	1600.000000
-14.341423	-15.065000	1601.615845
-13.341423	-15.065000	1600.411255
-12.341423	-15.065000	1603.213745
-11.341423	-15.065000	1613.434937
-10.341423	-15.065000	1618.265015
-9.341423	-15.065000	1620.210449
-8.341423	-15.065000	1621.447754
-7.341423	-15.065000	1619.454956
-6.341423	-15.065000	1617.127441
-5.341423	-15.065000	1615.691162
-4.341423	-15.065000	1616.303955
-3.341423	-15.065000	1616.595215
-2.341423	-15.065000	1616.045410
-1.341423	-15.065000	1618.916504
-0.341423	-15.065000	1613.900024
0.658577	-15.065000	1614.971436
1.658577	-15.065000	1614.358521
2.658577	-15.065000	1615.710815
3.658577	-15.065000	1616.513184
4.658577	-15.065000	1615.080322
5.658577	-15.065000	1605.835205
6.658577	-15.065000	1601.763428
7.658577	-15.065000	1600.000000
8.658577	-15.065000	1600.000000
9.658577	-15.065000	1600.000000
10.658577	-15.065000	1600.000000
11.658577	-15.065000	1608.608887
12.658577	-15.065000	1607.477417
13.658577	-15.065000	1617.611206
14.658577	-15.065000	1614.139771
15.658577	-15.065000	1611.244751
16.658577	-15.065000	1613.994507
17.658577	-15.065000	1616.076660
18.658577	-15.065000	1616.939941
19.658577	-15.065000	1611.651001
20.658577	-15.065000	1614.818604
21.658577	-15.065000	1616.873901
22.658577	-15.065000	1611.941772
23.658577	-15.065000	1611.564331
24.658577	-15.065000	1605.915771
-39.341423	-14.065000	1610.292847
-38.341423	-14.065000	1603.389282
-37.341423	-14.065000	1604.753784
-36.341423	-14.065000	1603.431519
-35.341423	-14.065000	1603.661011
-34.341423	-14.065000	1603.602417
-33.341423	-14.065000	1603.168091
-32.341423	-14.065000	1603.069580
-31.341423	-14.065000	1600.862793
-30.341423	-14.065000	1600.000000
-29.341423	-14.065000	1614.574707
-28.341423	-14.065000	1613.976563
-27.341423	-14.065000	1601.594604
-26.341423	-14.065000	1608.935669
-25.341423	-14.065000	1616.239014
-24.341423	-14.065000	1615.659424
-23.341423	-14.065000	1613.818604
-22.341423	-14.065000	1617.825806
-21.341423	-14.065000	1609.014160
-20.341423	-14.065000	1611.598755
-19.341423	-14.065000	1640.000000
-18.341423	-14.065000	1606.364258
-17.341423	-14.065000	1610.326538
-16.341423	-14.065000	1601.334351
-15.341423	-14.065000	1607.097778
-14.341423	-14.065000	1602.870972
-13.341423	-14.065000	1607.219849
-12.341423	-14.065000	1606.571777
-11.341423	-14.065000	1616.527710
-10.341423	-14.065000	1620.692993
-9.341423	-14.065000	1618.210693
-8.341423	-14.065000	1621.043701
-7.341423	-14.065000	1620.270020
-6.341423	-14.065000	1622.902954
-5.341423	-14.065000	1620.320435
-4.341423	-14.065000	1619.137573
-3.341423	-14.065000	1615.765259
-2.341423	-14.065000	1615.383301
-1.341423	-14.065000	1617.291870
-0.341423	-14.065000	1618.157471
0.658577	-14.065000	1616.146729
1.658577	-14.065000	1614.462891
2.658577	-14.065000	1618.454956
3.658577	-14.065000	1617.652344
4.658577	-14.065000	1616.615967
5.658577	-14.065000	1614.895264
6.658577	-14.065000	1605.709351
7.658577	-14.065000	1600.000000
8.658577	-14.065000	1617.349976
9.658577	-14.065000	1602.620117
10.658577	-14.065000	1604.447021
11.658577	-14.065000	1603.034058
12.658577	-14.065000	1607.423218
13.658577	-14.065000	1609.815918
14.658577	-14.065000	1616.369385
15.658577	-14.065000	1604.052612
16.658577	-14.065000	1622.135376
17.658577	-14.065000	1619.745483
18.658577	-14.065000	1617.648926
19.658577	-14.065000	1616.187256
20.658577	-14.065000	1617.944092
21.658577	-14.065000	1615.737671
22.658577	-14.065000	1617.273071
23.658577	-14.065000	1616.940918
24.658577	-14.065000	1620.662598
-39.341423	-13.065000	1601.414185
-38.341423	-13.065000	1602.732422
-37.341423	-13.065000	1603.895142
-36.341423	-13.065000	1603.557373
-35.341423	-13.065000	1603.241821
-34.341423	-13.065000	1604.268555
-33.341423	-13.065000	1603.453613
-32.341423	-13.065000	1603.283203
-31.341423	-13.065000	1601.566772
-30.341423	-13.065000	1600.000000
-29.341423	-13.065000	1600.527100
-28.341423	-13.065000	1600.000000
-27.341423	-13.065000	1606.243042
-26.341423	-13.065000	1611.954468
-25.341423	-13.065000	1614.686279
-24.341423	-13.065000	1611.666382
-23.341423	-13.065000	1617.239502
-22.341423	-13.065000	1600.000000
-21.341423	-13.065000	1611.960449
-20.341423	-13.065000	1616.939575
-19.341423	-13.065000	1616.293701
-18.341423	-13.065000	1620.111206
-17.341423	-13.065000	1614.961914
-16.341423	-13.065000	1618.296143
-15.341423	-13.065000	1614.571777
-14.341423	-13.065000	1613.530029
-13.341423	-13.065000	1602.686646
-12.341423	-13.065000	1615.346924
-11.341423	-13.065000	1620.450562
-10.341423	-13.065000	1622.094849
-9.341423	-13.065000	1619.980957
-8.341423	-13.065000	1620.360840
-7.341423	-13.065000	1620.128296
-6.341423	-13.065000	1618.065552
-5.341423	-13.065000	1619.261597
-4.341423	-13.065000	1617.405151
-3.341423	-13.065000	1614.554565
-2.341423	-13.065000	1617.515381
-1.341423	-13.065000	1611.712646
-0.341423	-13.065000	1612.706665
0.658577	-13.065000	1615.021606
1.658577	-13.065000	1614.066772
2.658577	-13.065000	1617.869019
3.658577	-13.065000	1619.560791
4.658577	-13.065000	1618.083618
5.658577	-13.065000	1617.503174
6.658577	-13.065000	1613.751709
7.658577	-13.065000	1603.780029
8.658577	-13.065000	1604.078369
9.658577	-13.065000	1606.146729
10.658577	-13.065000	1612.872192
11.658577	-13.065000	1622.936279
12.658577	-13.065000	1621.092773
13.658577	-13.065000	1616.752686
14.658577	-13.065000	1615.035156
15.658577	-13.065000	1602.145142
16.658577	-13.065000	1607.357422
17.658577	-13.065000	1608.314941
18.658577	-13.065000	1617.559326
19.658577	-13.065000	1616.110962
20.658577	-13.065000	1614.545776
21.658577	-13.065000	1617.074463
22.658577	-13.065000	1616.248047
23.658577	-13.065000	1617.693848
24.658577	-13.065000	1617.942993
-39.341423	-12.065000	1601.848877
-38.341423	-12.065000	1604.257690
-37.341423	-12.065000	1603.606812
-36.341423	-12.065000	1603.808960
-35.341423	-12.065000	1602.691895
-34.341423	-12.065000	1603.522949
-33.341423	-12.065000	1603.343262
-32.341423	-12.065000	1602.885742
-31.341423	-12.065000	1603.013672
-30.341423	-12.065000	1602.090698
-29.341423	-12.065000	1602.067017
-28.341423	-12.065000	1602.215576
-27.341423	-12.065000	1610.764648
-26.341423	-12.065000	1600.254517
-25.341423	-12.065000	1608.556519
-24.341423	-12.065000	1600.000000
-23.341423	-12.065000	1612.182983
-22.341423	-12.065000	1600.000000
-21.341423	-12.065000	1617.600220
-20.341423	-12.065000	1616.402222
-19.341423	-12.065000	1615.794678
-18.341423	-12.065000	1618.138184
-17.341423	-12.065000	1612.597290
-16.341423	-12.065000	1617.276123
-15.341423	-12.065000	1616.531006
-14.341423	-12.065000	1619.796021
-13.341423	-12.065000	1610.182251
-12.341423	-12.065000	1618.832153
-11.341423	-12.065000	1620.529663
-10.341423	-12.065000	1619.720093
-9.341423	-12.065000	1619.694702
-8.341423	-12.065000	1620.119385
-7.341423	-12.065000	1614.871216
-6.341423	-12.065000	1615.202515
-5.341423	-12.065000	1612.803589
-4.341423	-12.065000	1617.408691
-3.341423	-12.065000	1613.369751
-2.341423	-12.065000	1614.325684
-1.341423	-12.065000	1614.986694
-0.341423	-12.065000	1614.982544
0.658577	-12.065000	1613.847290
1.658577	-12.065000	1618.972900
2.658577	-12.065000	1618.458374
3.658577	-12.065000	1616.133911
4.658577	-12.065000	1615.897461
5.658577	-12.065000	1617.988525
6.658577	-12.065000	1616.591675
7.658577	-12.065000	1609.595093
8.658577	-12.065000	1612.894165
9.658577	-12.065000	1612.336426
10.658577	-12.065000	1607.139526
11.658577	-12.065000	1624.027222
12.658577	-12.065000	1618.039307
13.658577	-12.065000	1600.000000
14.658577	-12.065000	1619.088867
15.658577	-12.065000	1616.736084
16.658577	-12.065000	1601.887329
17.658577	-12.065000	1615.431885
18.658577	-12.065000	1617.184326
19.658577	-12.065000	1617.542480
20.658577	-12.065000	1617.404419
21.658577	-12.065000	1617.437378
22.658577	-12.065000	1617.919678
23.658577	-12.065000	1614.678589
24.658577	-12.065000	1617.328247
-39.341423	-11.065000	1602.514648
-38.341423	-11.065000	1604.393799
-37.341423	-11.065000	1604.994263
-36.341423	-11.065000	1601.049194
-35.341423	-11.065000	1600.000000
-34.341423	-11.065000	1602.123169
-33.341423	-11.065000	1604.294678
-32.341423	-11.065000	1601.925781
-31.341423	-11.065000	1602.545044
-30.341423	-11.065000	1603.357422
-29.341423	-11.065000	1603.371094
-28.341423	-11.065000	1601.488770
-27.341423	-11.065000	1604.622681
-26.341423	-11.065000	1606.417603
-25.341423	-11.065000	1607.448486
-24.341423	-11.065000	1612.416626
-23.341423	-11.065000	1611.456299
-22.341423	-11.065000	1616.138184
-21.341423	-11.065000	1611.588501
-20.341423	-11.065000	1615.598633
-19.341423	-11.065000	1614.772095
-18.341423	-11.065000	1617.566895
-17.341423	-11.065000	1617.846802
-16.341423	-11.065000	1616.535767
-15.341423	-11.065000	1615.152100
-14.341423	-11.065000	1609.241821
-13.341423	-11.065000	1620.073242
-12.341423	-11.065000	1619.389282
-11.341423	-11.065000	1619.870972
-10.341423	-11.065000	1620.233521
-9.341423	-11.065000	1620.180664
-8.341423	-11.065000	1616.838989
-7.341423	-11.065000	1613.301758
-6.341423	-11.065000	1612.729004
-5.341423	-11.065000	1614.234253
-4.341423	-11.065000	1619.189087
-3.341423	-11.065000	1616.564819
-2.341423	-11.065000	1616.845947
-1.341423	-11.065000	1612.355835
-0.341423	-11.065000	1612.742432
0.658577	-11.065000	1607.701416
1.658577	-11.065000	1612.827393
2.658577	-11.065000	1615.861572
3.658577	-11.065000	1609.976685
4.658577	-11.065000	1617.860474
5.658577	-11.065000	1616.041016
6.658577	-11.065000	1616.114624
7.658577	-11.065000	1615.459717
8.658577	-11.065000	1615.771118
9.658577	-11.065000	1615.864990
10.658577	-11.065000	1617.337280
11.658577	-11.065000	1613.533936
12.658577	-11.065000	1616.763916
13.658577	-11.065000	1615.375366
14.658577	-11.065000	1617.347656
15.658577	-11.065000	1615.387695
16.658577	-11.065000	1614.449585
17.658577	-11.065000	1618.375854
18.658577	-11.065000	1614.310669
19.658577	-11.065000	1616.971069
20.658577	-11.065000	1609.938354
21.658577	-11.065000	1600.000000
22.658577	-11.065000	1615.205566
23.658577	-11.065000	1616.265137
24.658577	-11.065000	1614.253906
-39.341423	-10.065000	1603.927246
-38.341423	-10.065000	1603.617188
-37.341423	-10.065000	1604.345947
-36.341423	-10.065000	1602.241089
-35.341423	-10.065000	1601.987427
-34.341423	-10.065000	1601.505005
-33.341423	-10.065000	1603.390503
-32.341423	-10.065000	1603.814575
-31.341423	-10.065000	1603.680054
-30.341423	-10.065000	1603.391479
-29.341423	-10.065000	1602.114624
-28.341423	-10.065000	1601.309814
-27.341423	-10.065000	1602.447510
-26.341423	-10.065000	1604.584229
-25.341423	-10.065000	1605.475342
-24.341423	-10.065000	1613.062866
-23.341423	-10.065000	1616.338013
-22.341423	-10.065000	1620.745605
-21.341423	-10.065000	1611.950439
-20.341423	-10.065000	1612.072266
-19.341423	-10.065000	1618.427368
-18.341423	-10.065000	1620.282104
-17.341423	-10.065000	1600.000000
-16.341423	-10.065000	1618.666626
-15.341423	-10.065000	1614.296509
-14.341423	-10.065000	1605.115112
-13.341423	-10.065000	1609.818726
-12.341423	-10.065000	1601.378540
-11.341423	-10.065000	1603.817993
-10.341423	-10.065000	1605.663818
-9.341423	-10.065000	1616.099976
-8.341423	-10.065000	1614.469727
-7.341423	-10.065000	1617.193237
-6.341423	-10.065000	1617.072266
-5.341423	-10.065000	1616.314941
-4.341423	-10.065000	1617.702515
-3.341423	-10.065000	1613.388184
-2.341423	-10.065000	1613.689087
-1.341423	-10.065000	1614.819092
-0.341423	-10.065000	1614.292969
0.658577	-10.065000	1612.727295
1.658577	-10.065000	1616.192749
2.658577	-10.065000	1615.768066
3.658577	-10.065000	1600.000000
4.658577	-10.065000	1617.868774
5.658577	-10.065000	1616.634277
6.658577	-10.065000	1609.699341
7.658577	-10.065000	1608.357910
8.658577	-10.065000	1600.000000
9.658577	-10.065000	1616.143066
10.658577	-10.065000	1611.646240
11.658577	-10.065000	1600.000000
12.658577	-10.065000	1614.252319
13.658577	-10.065000	1615.894531
14.658577	-10.065000	1616.358887
15.658577	-10.065000	1614.464233
16.658577	-10.065000	1616.718506
17.658577	-10.065000	1616.704346
18.658577	-10.065000	1616.575806
19.658577	-10.065000	1600.000000
20.658577	-10.065000	1617.585815
21.658577	-10.065000	1617.415771
22.658577	-10.065000	1615.524902
23.658577	-10.065000	1616.623291
24.658577	-10.065000	1616.518799
-39.341423	-9.065000	1604.198730
-38.341423	-9.065000	1603.049316
-37.341423	-9.065000	1602.996094
-36.341423	-9.065000	1603.879761
-35.341423	-9.065000	1604.604248
-34.341423	-9.065000	1604.380493
-33.341423	-9.065000	1603.580811
-32.341423	-9.065000	1603.829224
-31.341423	-9.065000	1604.170166
-30.341423	-9.065000	1602.756348
-29.341423	-9.065000	1602.432739
-28.341423	-9.065000	1602.824707
-27.341423	-9.065000	1603.127808
-26.341423	-9.065000	1608.551636
-25.341423	-9.065000	1608.537109
-24.341423	-9.065000	1619.421265
-23.341423	-9.065000	1612.692017
-22.341423	-9.065000	1621.295776
-21.341423	-9.065000	1625.469238
-20.341423	-9.065000	1618.451294
-19.341423	-9.065000	1617.078857
-18.341423	-9.065000	1618.052246
-17.341423	-9.065000	1617.266235
-16.341423	-9.065000	1610.354248
-15.341423	-9.065000	1640.000000
-14.341423	-9.065000	1600.048096
-13.341423	-9.065000	1600.000000
-12.341423	-9.065000	1606.416626
-11.341423	-9.065000	1605.287598
-10.341423	-9.065000	1604.186646
-9.341423	-9.065000	1605.330566
-8.341423	-9.065000	1607.002930
-7.341423	-9.065000	1616.408081
-6.341423	-9.065000	1615.180664
-5.341423	-9.065000	1613.855469
-4.341423	-9.065000	1617.017944
-3.341423	-9.065000	1618.836426
-2.341423	-9.065000	1615.678589
-1.341423	-9.065000	1618.046509
-0.341423	-9.065000	1613.837036
0.658577	-9.065000	1610.770142
1.658577	-9.065000	1612.685547
2.658577	-9.065000	1618.558960
3.658577	-9.065000	1619.046265
4.658577	-9.065000	1618.503296
5.658577	-9.065000	1603.102539
6.658577	-9.065000	1608.139404
7.658577	-9.065000	1603.577759
8.658577	-9.065000	1617.633301
9.658577	-9.065000	1620.102661
10.658577	-9.065000	1600.000000
11.658577	-9.065000	1623.534546
12.658577	-9.065000	1614.259033
13.658577	-9.065000	1616.524292
14.658577	-9.065000	1616.857910
15.658577	-9.065000	1614.822754
16.658577	-9.065000	1618.765625
17.658577	-9.065000	1618.424194
18.658577	-9.065000	1600.000000
19.658577	-9.065000	1618.137329
20.658577	-9.065000	1600.000000
21.658577	-9.065000	1600.000000
22.658577	-9.065000	1615.925903
23.658577	-9.065000	1616.283325
24.658577	-9.065000	1612.594727
-39.341423	-8.065000	1603.826904
-38.341423	-8.065000	1601.473267
-37.341423	-8.065000	1603.146118
-36.341423	-8.065000	1603.050659
-35.341423	-8.065000	1604.094360
-34.341423	-8.065000	1603.817505
-33.341423	-8.065000	1602.761597
-32.341423	-8.065000	1604.246704
-31.341423	-8.065000	1600.271606
-30.341423	-8.065000	1601.284058
-29.341423	-8.065000	1600.278564
-28.341423	-8.065000	1603.082031
-27.341423	-8.065000	1605.022461
-26.341423	-8.065000	1606.358887
-25.341423	-8.065000	1607.317505
-24.341423	-8.065000	1615.197754
-23.341423	-8.065000	1616.174072
-22.341423	-8.065000	1615.795898
-21.341423	-8.065000	1613.325439
-20.341423	-8.065000	1600.000000
-19.341423	-8.065000	1616.772583
-18.341423	-8.065000	1614.015747
-17.341423	-8.065000	1613.112427
-16.341423	-8.065000	1602.103149
-15.341423	-8.065000	1615.015869
-14.341423	-8.065000	1607.362671
-13.341423	-8.065000	1600.000000
-12.341423	-8.065000	1614.501587
-11.341423	-8.065000	1600.000000
-10.341423	-8.065000	1600.000000
-9.341423	-8.065000	1603.542480
-8.341423	-8.065000	1603.692261
-7.341423	-8.065000	1600.000000
-6.341423	-8.065000	1608.582275
-5.341423	-8.065000	1616.922729
-4.341423	-8.065000	1612.360107
-3.341423	-8.065000	1618.084229
-2.341423	-8.065000	1619.318481
-1.341423	-8.065000	1621.390015
-0.341423	-8.065000	1612.593262
0.658577	-8.065000	1612.911499
1.658577	-8.065000	1613.158569
2.658577	-8.065000	1617.350342
3.658577	-8.065000	1615.237671
4.658577	-8.065000	1615.452515
5.658577	-8.065000	1607.610596
6.658577	-8.065000	1603.521973
7.658577	-8.065000	1604.774048
8.658577	-8.065000	1622.653931
9.658577	-8.065000	1619.879272
10.658577	-8.065000	1600.000000
11.658577	-8.065000	1617.943115
12.658577	-8.065000	1616.329102
13.658577	-8.065000	1615.588257
14.658577	-8.065000	1617.111938
15.658577	-8.065000	1612.478149
16.658577	-8.065000	1618.700684
17.658577	-8.065000	1616.530396
18.658577	-8.065000	1600.000000
19.658577	-8.065000	1600.000000
20.658577	-8.065000	1617.024170
21.658577	-8.065000	1600.000000
22.658577	-8.065000	1600.000000
23.658577	-8.065000	1617.083008
24.658577	-8.065000	1602.250244
-39.341423	-7.065000	1603.061768
-38.341423	-7.065000	1600.815186
-37.341423	-7.065000	1603.543701
-36.341423	-7.065000	1604.024292
-35.341423	-7.065000	1604.968506
-34.341423	-7.065000	1604.069580
-33.341423	-7.065000	1604.118530
-32.341423	-7.065000	1603.718628
-31.341423	-7.065000	1604.633789
-30.341423	-7.065000	1603.418579
-29.341423	-7.065000	1602.048706
-28.341423	-7.065000	1602.035889
-27.341423	-7.065000	1609.296143
-26.341423	-7.065000	1604.223022
-25.341423	-7.065000	1605.467407
-24.341423	-7.065000	1616.797119
-23.341423	-7.065000	1617.942261
-22.341423	-7.065000	1618.716797
-21.341423	-7.065000	1606.773193
-20.341423	-7.065000	1616.670044
-19.341423	-7.065000	1609.716675
-18.341423	-7.065000	1609.302490
-17.341423	-7.065000	1604.749390
-16.341423	-7.065000	1600.000000
-15.341423	-7.065000	1613.926514
-14.341423	-7.065000	1600.000000
-13.341423	-7.065000	1600.000000
-12.341423	-7.065000	1611.846069
-11.341423	-7.065000	1600.695313
-10.341423	-7.065000	1600.000000
-9.341423	-7.065000	1604.519531
-8.341423	-7.065000	1605.546875
-7.341423	-7.065000	1610.625610
-6.341423	-7.065000	1623.789673
-5.341423	-7.065000	1609.402588
-4.341423	-7.065000	1621.255493
-3.341423	-7.065000	1609.556519
-2.341423	-7.065000	1603.550537
-1.341423	-7.065000	1619.585327
-0.341423	-7.065000	1624.633789
0.658577	-7.065000	1616.478394
1.658577	-7.065000	1600.000000
2.658577	-7.065000	1616.314087
3.658577	-7.065000	1616.605347
4.658577	-7.065000	1617.437500
5.658577	-7.065000	1608.719727
6.658577	-7.065000	1602.671143
7.658577	-7.065000	1611.544678
8.658577	-7.065000	1614.522339
9.658577	-7.065000	1617.682983
10.658577	-7.065000	1612.713745
11.658577	-7.065000	1618.957520
12.658577	-7.065000	1616.934082
13.658577	-7.065000	1606.523315
14.658577	-7.065000	1601.278564
15.658577	-7.065000	1610.464844
16.658577	-7.065000	1617.327271
17.658577	-7.065000	1617.111938
18.658577	-7.065000	1617.611694
19.658577	-7.065000	1600.000000
20.658577	-7.065000	1617.561646
21.658577	-7.065000	1618.692261
22.658577	-7.065000	1616.629517
23.658577	-7.065000	1640.000000
24.658577	-7.065000	1612.608765
-39.341423	-6.065000	1602.725830
-38.341423	-6.065000	1601.503052
-37.341423	-6.065000	1604.343384
-36.341423	-6.065000	1604.442993
-35.341423	-6.065000	1604.434692
-34.341423	-6.065000	1603.917847
-33.341423	-6.065000	1603.642090
-32.341423	-6.065000	1604.180664
-31.341423	-6.065000	1603.486694
-30.341423	-6.065000	1603.117432
-29.341423	-6.065000	1602.645752
-28.341423	-6.065000	1604.137695
-27.341423	-6.065000	1605.474487
-26.341423	-6.065000	1605.806519
-25.341423	-6.065000	1603.563721
-24.341423	-6.065000	1605.997681
-23.341423	-6.065000	1617.144165
-22.341423	-6.065000	1613.994629
-21.341423	-6.065000	1608.231079
-20.341423	-6.065000	1617.027344
-19.341423	-6.065000	1617.792725
-18.341423	-6.065000	1615.227417
-17.341423	-6.065000	1611.881714
-16.341423	-6.065000	1602.348389
-15.341423	-6.065000	1601.997314
-14.341423	-6.065000	1601.312622
-13.341423	-6.065000	1600.000000
-12.341423	-6.065000	1600.000000
-11.341423	-6.065000	1600.000000
-10.341423	-6.065000	1603.544312
-9.341423	-6.065000	1603.313354
-8.341423	-6.065000	1605.034668
-7.341423	-6.065000	1605.973633
-6.341423	-6.065000	1603.839844
-5.341423	-6.065000	1612.255493
-4.341423	-6.065000	1612.247559
-3.341423	-6.065000	1616.161865
-2.341423	-6.065000	1621.163208
-1.341423	-6.065000	1600.000000
-0.341423	-6.065000	1607.134399
0.658577	-6.065000	1620.428833
1.658577	-6.065000	1622.361816
2.658577	-6.065000	1612.380981
3.658577	-6.065000	1615.332642
4.658577	-6.065000	1618.571533
5.658577	-6.065000	1617.129028
6.658577	-6.065000	1615.087280
7.658577	-6.065000	1612.487793
8.658577	-6.065000	1618.229370
9.658577	-6.065000	1614.866821
10.658577	-6.065000	1615.308105
11.658577	-6.065000	1612.803711
12.658577	-6.065000	1606.433350
13.658577	-6.065000	1617.740234
14.658577	-6.065000	1616.439453
15.658577	-6.065000	1615.124023
16.658577	-6.065000	1614.562378
17.658577	-6.065000	1617.586182
18.658577	-6.065000	1617.215576
19.658577	-6.065000	1617.972412
20.658577	-6.065000	1614.782837
21.658577	-6.065000	1617.159546
22.658577	-6.065000	1616.746704
23.658577	-6.065000	1618.963013
24.658577	-6.065000	1616.564331
-39.341423	-5.065000	1605.613037
-38.341423	-5.065000	1604.166382
-37.341423	-5.065000	1601.990112
-36.341423	-5.065000	1602.907837
-35.341423	-5.065000	1602.191772
-34.341423	-5.065000	1604.355469
-33.341423	-5.065000	1604.501831
-32.341423	-5.065000	1603.705688
-31.341423	-5.065000	1604.955566
-30.341423	-5.065000	1603.631836
-29.341423	-5.065000	1605.904053
-28.341423	-5.065000	1609.858154
-27.341423	-5.065000	1612.535156
-26.341423	-5.065000	1609.644775
-25.341423	-5.065000	1612.803955
-24.341423	-5.065000	1603.285400
-23.341423	-5.065000	1605.427490
-22.341423	-5.065000	1609.791260
-21.341423	-5.065000	1609.189697
-20.341423	-5.065000	1619.403564
-19.341423	-5.065000	1621.261353
-18.341423	-5.065000	1618.355103
-17.341423	-5.065000	1611.355591
-16.341423	-5.065000	1604.523315
-15.341423	-5.065000	1601.974121
-14.341423	-5.065000	1602.274170
-13.341423	-5.065000	1601.809814
-12.341423	-5.065000	1602.556396
-11.341423	-5.065000	1603.898315
-10.341423	-5.065000	1601.421997
-9.341423	-5.065000	1604.349976
-8.341423	-5.065000	1602.273682
-7.341423	-5.065000	1601.223267
-6.341423	-5.065000	1604.511353
-5.341423	-5.065000	1606.942749
-4.341423	-5.065000	1613.186401
-3.341423	-5.065000	1624.287109
-2.341423	-5.065000	1603.132446
-1.341423	-5.065000	1612.958984
-0.341423	-5.065000	1609.333862
0.658577	-5.065000	1615.317139
1.658577	-5.065000	1610.530273
2.658577	-5.065000	1609.180420
3.658577	-5.065000	1620.666260
4.658577	-5.065000	1611.870361
5.658577	-5.065000	1615.463745
6.658577	-5.065000	1616.391724
7.658577	-5.065000	1614.084717
8.658577	-5.065000	1616.971802
9.658577	-5.065000	1611.462891
10.658577	-5.065000	1614.214111
11.658577	-5.065000	1614.233032
12.658577	-5.065000	1607.967163
13.658577	-5.065000	1600.380249
14.658577	-5.065000	1601.668945
15.658577	-5.065000	1615.204102
16.658577	-5.065000	1614.177368
17.658577	-5.065000	1614.111816
18.658577	-5.065000	1616.916260
19.658577	-5.065000	1616.695923
20.658577	-5.065000	1616.780029
21.658577	-5.065000	1613.551758
22.658577	-5.065000	1615.849609
23.658577	-5.065000	1619.259888
24.658577	-5.065000	1617.981079
-39.341423	-4.065000	1622.757446
-38.341423	-4.065000	1607.934204
-37.341423	-4.065000	1616.571167
-36.341423	-4.065000	1633.725342
-35.341423	-4.065000	1612.164795
-34.341423	-4.065000	1601.508179
-33.341423	-4.065000	1604.958740
-32.341423	-4.065000	1606.237183
-31.341423	-4.065000	1606.631714
-30.341423	-4.065000	1609.247803
-29.341423	-4.065000	1607.009277
-28.341423	-4.065000	1604.021484
-27.341423	-4.065000	1611.547363
-26.341423	-4.065000	1610.204102
-25.341423	-4.065000	1609.076416
-24.341423	-4.065000	1607.358765
-23.341423	-4.065000	1605.148926
-22.341423	-4.065000	1603.214600
-21.341423	-4.065000	1613.916260
-20.341423	-4.065000	1614.268311
-19.341423	-4.065000	1605.991089
-18.341423	-4.065000	1607.687988
-17.341423	-4.065000	1605.234619
-16.341423	-4.065000	1608.798462
-15.341423	-4.065000	1604.619263
-14.341423	-4.065000	1602.046021
-13.341423	-4.065000	1604.651245
-12.341423	-4.065000	1600.000000
-11.341423	-4.065000	1615.036743
-10.341423	-4.065000	1619.419189
-9.341423	-4.065000	1612.161133
-8.341423	-4.065000	1600.000000
-7.341423	-4.065000	1600.450806
-6.341423	-4.065000	1612.925049
-5.341423	-4.065000	1604.430420
-4.341423	-4.065000	1625.296265
-3.341423	-4.065000	1640.000000
-2.341423	-4.065000	1600.272095
-1.341423	-4.065000	1607.573120
-0.341423	-4.065000	1605.926758
0.658577	-4.065000	1613.935547
1.658577	-4.065000	1618.996216
2.658577	-4.065000	1626.625488
3.658577	-4.065000	1629.820190
4.658577	-4.065000	1615.229858
5.658577	-4.065000	1613.884521
6.658577	-4.065000	1610.920410
7.658577	-4.065000	1607.429443
8.658577	-4.065000	1606.022339
9.658577	-4.065000	1606.905396
10.658577	-4.065000	1610.328613
11.658577	-4.065000	1616.857544
12.658577	-4.065000	1607.329224
13.658577	-4.065000	1606.458496
14.658577	-4.065000	1603.290161
15.658577	-4.065000	1604.867188
16.658577	-4.065000	1610.302002
17.658577	-4.065000	1617.838135
18.658577	-4.065000	1614.846802
19.658577	-4.065000	1616.341675
20.658577	-4.065000	1616.553711
21.658577	-4.065000	1616.031372
22.658577	-4.065000	1617.297119
23.658577	-4.065000	1616.085205
24.658577	-4.065000	1619.969849
-39.341423	-3.065000	1623.461182
-38.341423	-3.065000	1630.665039
-37.341423	-3.065000	1616.020752
-36.341423	-3.065000	1617.673340
-35.341423	-3.065000	1613.167358
-34.341423	-3.065000	1600.000000
-33.341423	-3.065000	1610.053467
-32.341423	-3.065000	1611.536255
-31.341423	-3.065000	1609.879272
-30.341423	-3.065000	1606.769531
-29.341423	-3.065000	1611.189209
-28.341423	-3.065000	1632.389526
-27.341423	-3.065000	1613.318848
-26.341423	-3.065000	1600.556519
-25.341423	-3.065000	1611.840332
-24.341423	-3.065000	1601.110596
-23.341423	-3.065000	1603.402588
-22.341423	-3.065000	1601.492188
-21.341423	-3.065000	1614.359253
-20.341423	-3.065000	1600.816406
-19.341423	-3.065000	1615.062256
-18.341423	-3.065000	1615.426392
-17.341423	-3.065000	1610.791992
-16.341423	-3.065000	1608.730225
-15.341423	-3.065000	1606.751587
-14.341423	-3.065000	1604.690918
-13.341423	-3.065000	1600.424194
-12.341423	-3.065000	1616.383667
-11.341423	-3.065000	1616.838135
-10.341423	-3.065000	1614.282471
-9.341423	-3.065000	1616.545410
-8.341423	-3.065000	1616.080688
-7.341423	-3.065000	1616.369873
-6.341423	-3.065000	1613.536987
-5.341423	-3.065000	1612.827026
-4.341423	-3.065000	1616.242310
-3.341423	-3.065000	1611.537598
-2.341423	-3.065000	1602.759521
-1.341423	-3.065000	1602.538208
-0.341423	-3.065000	1603.735596
0.658577	-3.065000	1606.211670
1.658577	-3.065000	1616.312500
2.658577	-3.065000	1612.257690
3.658577	-3.065000	1607.786865
4.658577	-3.065000	1612.470947
5.658577	-3.065000	1616.458374
6.658577	-3.065000	1616.458740
7.658577	-3.065000	1612.951904
8.658577	-3.065000	1606.197998
9.658577	-3.065000	1613.532104
10.658577	-3.065000	1613.317261
11.658577	-3.065000	1611.552856
12.658577	-3.065000	1606.248901
13.658577	-3.065000	1603.129517
14.658577	-3.065000	1607.157227
15.658577	-3.065000	1607.078735
16.658577	-3.065000	1615.677856
17.658577	-3.065000	1618.192627
18.658577	-3.065000	1615.611450
19.658577	-3.065000	1619.357788
20.658577	-3.065000	1618.398682
21.658577	-3.065000	1616.729980
22.658577	-3.065000	1622.576416
23.658577	-3.065000	1621.077393
24.658577	-3.065000	1618.976807
-39.341423	-2.065000	1617.134033
-38.341423	-2.065000	1607.517334
-37.341423	-2.065000	1612.833008
-36.341423	-2.065000	1617.067505
-35.341423	-2.065000	1608.016968
-34.341423	-2.065000	1613.279785
-33.341423	-2.065000	1609.529419
-32.341423	-2.065000	1618.754395
-31.341423	-2.065000	1600.000000
-30.341423	-2.065000	1601.303833
-29.341423	-2.065000	1607.179077
-28.341423	-2.065000	1618.697998
-27.341423	-2.065000	1608.121094
-26.341423	-2.065000	1601.074585
-25.341423	-2.065000	1600.373657
-24.341423	-2.065000	1600.000000
-23.341423	-2.065000	1600.514771
-22.341423	-2.065000	1606.320190
-21.341423	-2.065000	1613.095459
-20.341423	-2.065000	1613.643677
-19.341423	-2.065000	1614.420288
-18.341423	-2.065000	1604.472046
-17.341423	-2.065000	1619.342651
-16.341423	-2.065000	1618.371704
-15.341423	-2.065000	1605.019409
-14.341423	-2.065000	1603.232910
-13.341423	-2.065000	1600.022949
-12.341423	-2.065000	1633.177612
-11.341423	-2.065000	1614.303345
-10.341423	-2.065000	1603.971436
-9.341423	-2.065000	1616.371704
-8.341423	-2.065000	1616.356934
-7.341423	-2.065000	1615.017212
-6.341423	-2.065000	1618.125244
-5.341423	-2.065000	1613.778564
-4.341423	-2.065000	1616.918701
-3.341423	-2.065000	1616.518799
-2.341423	-2.065000	1600.701904
-1.341423	-2.065000	1601.475952
-0.341423	-2.065000	1602.957764
0.658577	-2.065000	1603.804199
1.658577	-2.065000	1604.672485
2.658577	-2.065000	1614.019287
3.658577	-2.065000	1607.077759
4.658577	-2.065000	1617.910400
5.658577	-2.065000	1615.671875
6.658577	-2.065000	1600.294312
7.658577	-2.065000	1612.543579
8.658577	-2.065000	1615.443604
9.658577	-2.065000	1611.806885
10.658577	-2.065000	1619.856689
11.658577	-2.065000	1619.871582
12.658577	-2.065000	1613.650391
13.658577	-2.065000	1603.007690
14.658577	-2.065000	1605.340698
15.658577	-2.065000	1600.075684
16.658577	-2.065000	1617.236084
17.658577	-2.065000	1619.258789
18.658577	-2.065000	1609.776855
19.658577	-2.065000	1608.583618
20.658577	-2.065000	1617.413574
21.658577	-2.065000	1610.838745
22.658577	-2.065000	1616.190552
23.658577	-2.065000	1619.624268
24.658577	-2.065000	1620.645386
-39.341423	-1.065000	1610.893433
-38.341423	-1.065000	1620.103882
-37.341423	-1.065000	1613.158447
-36.341423	-1.065000	1618.696533
-35.341423	-1.065000	1614.547119
-34.341423	-1.065000	1618.016113
-33.341423	-1.065000	1614.419922
-32.341423	-1.065000	1616.042236
-31.341423	-1.065000	1615.773071
-30.341423	-1.065000	1613.950806
-29.341423	-1.065000	1621.612061
-28.341423	-1.065000	1637.646606
-27.341423	-1.065000	1617.533081
-26.341423	-1.065000	1613.732666
-25.341423	-1.065000	1600.000000
-24.341423	-1.065000	1606.547119
-23.341423	-1.065000	1604.788330
-22.341423	-1.065000	1604.741211
-21.341423	-1.065000	1604.974609
-20.341423	-1.065000	1612.757080
-19.341423	-1.065000	1600.000000
-18.341423	-1.065000	1613.354370
-17.341423	-1.065000	1616.920654
-16.341423	-1.065000	1617.486084
-15.341423	-1.065000	1609.066772
-14.341423	-1.065000	1604.909180
-13.341423	-1.065000	1600.000000
-12.341423	-1.065000	1600.000000
-11.341423	-1.065000	1607.711060
-10.341423	-1.065000	1614.500488
-9.341423	-1.065000	1617.252075
-8.341423	-1.065000	1614.452637
-7.341423	-1.065000	1615.940430
-6.341423	-1.065000	1616.457031
-5.341423	-1.065000	1601.781128
-4.341423	-1.065000	1617.150024
-3.341423	-1.065000	1616.934814
-2.341423	-1.065000	1600.566895
-1.341423	-1.065000	1604.160156
-0.341423	-1.065000	1602.406982
0.658577	-1.065000	1600.924805
1.658577	-1.065000	1607.764160
2.658577	-1.065000	1608.879639
3.658577	-1.065000	1621.016235
4.658577	-1.065000	1619.221436
5.658577	-1.065000	1614.848389
6.658577	-1.065000	1610.079712
7.658577	-1.065000	1609.972412
8.658577	-1.065000	1613.960571
9.658577	-1.065000	1614.418823
10.658577	-1.065000	1619.494507
11.658577	-1.065000	1604.568115
12.658577	-1.065000	1608.080811
13.658577	-1.065000	1600.000000
14.658577	-1.065000	1603.851196
15.658577	-1.065000	1609.019897
16.658577	-1.065000	1616.599487
17.658577	-1.065000	1616.821045
18.658577	-1.065000	1615.917725
19.658577	-1.065000	1615.432129
20.658577	-1.065000	1601.214722
21.658577	-1.065000	1601.896851
22.658577	-1.065000	1618.997437
23.658577	-1.065000	1619.188232
24.658577	-1.065000	1619.144287
-39.341423	-0.065000	1600.000000
-38.341423	-0.065000	1621.684692
-37.341423	-0.065000	1616.383423
-36.341423	-0.065000	1617.448730
-35.341423	-0.065000	1610.956543
-34.341423	-0.065000	1618.020630
-33.341423	-0.065000	1618.125000
-32.341423	-0.065000	1619.328125
-31.341423	-0.065000	1617.209961
-30.341423	-0.065000	1613.328369
-29.341423	-0.065000	1618.145996
-28.341423	-0.065000	1619.912842
-27.341423	-0.065000	1616.695557
-26.341423	-0.065000	1612.125488
-25.341423	-0.065000	1603.772217
-24.341423	-0.065000	1600.000000
-23.341423	-0.065000	1606.027954
-22.341423	-0.065000	1608.275879
-21.341423	-0.065000	1612.110107
-20.341423	-0.065000	1608.597290
-19.341423	-0.065000	1607.702148
-18.341423	-0.065000	1613.384155
-17.341423	-0.065000	1618.161865
-16.341423	-0.065000	1615.888916
-15.341423	-0.065000	1613.066772
-14.341423	-0.065000	1600.771851
-13.341423	-0.065000	1600.000000
-12.341423	-0.065000	1602.304321
-11.341423	-0.065000	1601.867065
-10.341423	-0.065000	1611.234985
-9.341423	-0.065000	1615.797119
-8.341423	-0.065000	1616.850098
-7.341423	-0.065000	1617.143433
-6.341423	-0.065000	1613.820923
-5.341423	-0.065000	1602.786255
-4.341423	-0.065000	1612.008423
-3.341423	-0.065000	1613.276123
-2.341423	-0.065000	1602.166870
-1.341423	-0.065000	1603.763550
-0.341423	-0.065000	1602.617676
0.658577	-0.065000	1603.332397
1.658577	-0.065000	1605.672363
2.658577	-0.065000	1617.382324
3.658577	-0.065000	1618.661865
4.658577	-0.065000	1618.942505
5.658577	-0.065000	1613.918701
6.658577	-0.065000	1602.349854
7.658577	-0.065000	1603.422119
8.658577	-0.065000	1603.525757
9.658577	-0.065000	1608.114990
10.658577	-0.065000	1608.634644
11.658577	-0.065000	1606.230591
12.658577	-0.065000	1605.298462
13.658577	-0.065000	1612.266846
14.658577	-0.065000	1612.061768
15.658577	-0.065000	1600.000000
16.658577	-0.065000	1604.733276
17.658577	-0.065000	1615.709595
18.658577	-0.065000	1611.785522
19.658577	-0.065000	1604.411865
20.658577	-0.065000	1601.363892
21.658577	-0.065000	1600.584717
22.658577	-0.065000	1607.519897
23.658577	-0.065000	1618.315186
24.658577	-0.065000	1622.066650
-39.341423	0.935000	1600.000000
-38.341423	0.935000	1617.033325
-37.341423	0.935000	1623.749512
-36.341423	0.935000	1600.000000
-35.341423	0.935000	1619.048706
-34.341423	0.935000	1617.742065
-33.341423	0.935000	1613.719849
-32.341423	0.935000	1617.987671
-31.341423	0.935000	1616.563721
-30.341423	0.935000	1619.524048
-29.341423	0.935000	1622.594360
-28.341423	0.935000	1619.341553
-27.341423	0.935000	1614.082642
-26.341423	0.935000	1610.651245
-25.341423	0.935000	1604.523682
-24.341423	0.935000	1600.000000
-23.341423	0.935000	1613.190552
-22.341423	0.935000	1604.098145
-21.341423	0.935000	1604.987793
-20.341423	0.935000	1603.668457
-19.341423	0.935000	1610.457397
-18.341423	0.935000	1617.800903
-17.341423	0.935000	1616.391235
-16.341423	0.935000	1617.317505
-15.341423	0.935000	1609.699829
-14.341423	0.935000	1602.127563
-13.341423	0.935000	1600.000000
-12.341423	0.935000	1603.793579
-11.341423	0.935000	1601.413086
-10.341423	0.935000	1601.857422
-9.341423	0.935000	1613.017944
-8.341423	0.935000	1612.024414
-7.341423	0.935000	1615.874756
-6.341423	0.935000	1613.612671
-5.341423	0.935000	1605.149414
-4.341423	0.935000	1604.799683
-3.341423	0.935000	1604.477905
-2.341423	0.935000	1610.127441
-1.341423	0.935000	1603.309204
-0.341423	0.935000	1603.702515
0.658577	0.935000	1602.354004
1.658577	0.935000	1608.984131
2.658577	0.935000	1618.406372
3.658577	0.935000	1619.540649
4.658577	0.935000	1615.638550
5.658577	0.935000	1608.229004
6.658577	0.935000	1610.066284
7.658577	0.935000	1610.480103
8.658577	0.935000	1609.002319
9.658577	0.935000	1603.889893
10.658577	0.935000	1605.938232
11.658577	0.935000	1608.495972
12.658577	0.935000	1608.244385
13.658577	0.935000	1610.629272
14.658577	0.935000	1609.756592
15.658577	0.935000	1608.099731
16.658577	0.935000	1608.693237
17.658577	0.935000	1610.878784
18.658577	0.935000	1606.114624
19.658577	0.935000	1601.220947
20.658577	0.935000	1601.084229
21.658577	0.935000	1600.861084
22.658577	0.935000	1602.182251
23.658577	0.935000	1613.453247
24.658577	0.935000	1621.463257
-39.341423	1.935000	1617.162231
-38.341423	1.935000	1613.851196
-37.341423	1.935000	1615.317383
-36.341423	1.935000	1614.504150
-35.341423	1.935000	1611.407349
-34.341423	1.935000	1616.686035
-33.341423	1.935000	1614.584595
-32.341423	1.935000	1607.695679
-31.341423	1.935000	1619.341187
-30.341423	1.935000	1617.611328
-29.341423	1.935000	1607.643677
-28.341423	1.935000	1607.747803
-27.341423	1.935000	1614.105835
-26.341423	1.935000	1603.421631
-25.341423	1.935000	1609.286011
-24.341423	1.935000	1619.983032
-23.341423	1.935000	1615.446655
-22.341423	1.935000	1600.000000
-21.341423	1.935000	1603.371826
-20.341423	1.935000	1602.727295
-19.341423	1.935000	1611.026733
-18.341423	1.935000	1616.910278
-17.341423	1.935000	1618.347534
-16.341423	1.935000	1620.597534
-15.341423	1.935000	1611.058472
-14.341423	1.935000	1606.801392
-13.341423	1.935000	1604.286255
-12.341423	1.935000	1604.332275
-11.341423	1.935000	1601.395508
-10.341423	1.935000	1600.000000
-9.341423	1.935000	1600.000000
-8.341423	1.935000	1600.000000
-7.341423	1.935000	1625.454224
-6.341423	1.935000	1612.149902
-5.341423	1.935000	1603.147095
-4.341423	1.935000	1603.927612
-3.341423	1.935000	1603.926270
-2.341423	1.935000	1601.206909
-1.341423	1.935000	1603.282715
-0.341423	1.935000	1601.976685
0.658577	1.935000	1604.947876
1.658577	1.935000	1618.483887
2.658577	1.935000	1617.438477
3.658577	1.935000	1619.364746
4.658577	1.935000	1619.318237
5.658577	1.935000	1605.854370
6.658577	1.935000	1604.532227
7.658577	1.935000	1604.163208
8.658577	1.935000	1605.451782
9.658577	1.935000	1601.803101
10.658577	1.935000	1600.000000
11.658577	1.935000	1600.000000
12.658577	1.935000	1601.979980
13.658577	1.935000	1608.829712
14.658577	1.935000	1611.777954
15.658577	1.935000	1612.473267
16.658577	1.935000	1616.739502
17.658577	1.935000	1612.527588
18.658577	1.935000	1609.895874
19.658577	1.935000	1608.362671
20.658577	1.935000	1601.186157
21.658577	1.935000	1600.061523
22.658577	1.935000	1604.374023
23.658577	1.935000	1609.066284
24.658577	1.935000	1604.795166
-39.341423	2.935000	1611.089478
-38.341423	2.935000	1618.021484
-37.341423	2.935000	1610.382935
-36.341423	2.935000	1612.493530
-35.341423	2.935000	1614.902466
-34.341423	2.935000	1616.306519
-33.341423	2.935000	1615.787354
-32.341423	2.935000	1601.954346
-31.341423	2.935000	1620.355225
-30.341423	2.935000	1640.000000
-29.341423	2.935000	1611.285767
-28.341423	2.935000	1606.686890
-27.341423	2.935000	1607.207642
-26.341423	2.935000	1607.766724
-25.341423	2.935000	1608.420044
-24.341423	2.935000	1625.793091
-23.341423	2.935000	1619.189941
-22.341423	2.935000	1618.353882
-21.341423	2.935000	1600.424072
-20.341423	2.935000	1605.675781
-19.341423	2.935000	1612.735596
-18.341423	2.935000	1630.809326
-17.341423	2.935000	1602.446777
-16.341423	2.935000	1618.362061
-15.341423	2.935000	1619.152344
-14.341423	2.935000	1611.083618
-13.341423	2.935000	1606.675049
-12.341423	2.935000	1606.576782
-11.341423	2.935000	1606.474854
-10.341423	2.935000	1604.987671
-9.341423	2.935000	1602.052979
-8.341423	2.935000	1612.656372
-7.341423	2.935000	1612.724365
-6.341423	2.935000	1614.634277
-5.341423	2.935000	1600.197998
-4.341423	2.935000	1602.342163
-3.341423	2.935000	1603.333130
-2.341423	2.935000	1609.171631
-1.341423	2.935000	1605.162964
-0.341423	2.935000	1602.543091
0.658577	2.935000	1601.796021
1.658577	2.935000	1614.536865
2.658577	2.935000	1617.897583
3.658577	2.935000	1617.882935
4.658577	2.935000	1616.452881
5.658577	2.935000	1612.685791
6.658577	2.935000	1618.906494
7.658577	2.935000	1605.018799
8.658577	2.935000	1603.749878
9.658577	2.935000	1600.199707
10.658577	2.935000	1600.655884
11.658577	2.935000	1600.000000
12.658577	2.935000	1600.000000
13.658577	2.935000	1610.369873
14.658577	2.935000	1606.222290
15.658577	2.935000	1613.536255
16.658577	2.935000	1614.801514
17.658577	2.935000	1600.000000
18.658577	2.935000	1605.229736
19.658577	2.935000	1602.373169
20.658577	2.935000	1608.592773
21.658577	2.935000	1600.117798
22.658577	2.935000	1601.489502
23.658577	2.935000	1603.456177
24.658577	2.935000	1626.897339
-39.341423	3.935000	1612.958984
-38.341423	3.935000	1610.482300
-37.341423	3.935000	1608.503418
-36.341423	3.935000	1616.289185
-35.341423	3.935000	1616.361938
-34.341423	3.935000	1620.391235
-33.341423	3.935000	1617.007324
-32.341423	3.935000	1615.525513
-31.341423	3.935000	1614.422363
-30.341423	3.935000	1611.974365
-29.341423	3.935000	1613.519653
-28.341423	3.935000	1610.722656
-27.341423	3.935000	1609.298340
-26.341423	3.935000	1612.725830
-25.341423	3.935000	1607.571655
-24.341423	3.935000	1600.000000
-23.341423	3.935000	1640.000000
-22.341423	3.935000	1618.734375
-21.341423	3.935000	1601.598267
-20.341423	3.935000	1606.086914
-19.341423	3.935000	1604.058350
-18.341423	3.935000	1603.072998
-17.341423	3.935000	1600.398071
-16.341423	3.935000	1605.492432
-15.341423	3.935000	1606.672607
-14.341423	3.935000	1614.800659
-13.341423	3.935000	1605.689697
-12.341423	3.935000	1616.661499
-11.341423	3.935000	1612.908936
-10.341423	3.935000	1610.229126
-9.341423	3.935000	1616.056030
-8.341423	3.935000	1615.719360
-7.341423	3.935000	1616.223999
-6.341423	3.935000	1607.930054
-5.341423	3.935000	1607.711914
-4.341423	3.935000	1604.169800
-3.341423	3.935000	1604.012451
-2.341423	3.935000	1602.980957
-1.341423	3.935000	1602.894165
-0.341423	3.935000	1602.481934
0.658577	3.935000	1603.254028
1.658577	3.935000	1608.646851
2.658577	3.935000	1612.893677
3.658577	3.935000	1614.711426
4.658577	3.935000	1615.383301
5.658577	3.935000	1613.587646
6.658577	3.935000	1608.628174
7.658577	3.935000	1604.374268
8.658577	3.935000	1604.292114
9.658577	3.935000	1603.214111
10.658577	3.935000	1615.639038
11.658577	3.935000	1614.004272
12.658577	3.935000	1615.811890
13.658577	3.935000	1610.573486
14.658577	3.935000	1605.721680
15.658577	3.935000	1615.102905
16.658577	3.935000	1616.225220
17.658577	3.935000	1600.176025
18.658577	3.935000	1604.295044
19.658577	3.935000	1603.625610
20.658577	3.935000	1606.825317
21.658577	3.935000	1605.833984
22.658577	3.935000	1603.727173
23.658577	3.935000	1612.613281
24.658577	3.935000	1614.850098
-39.341423	4.935000	1604.096313
-38.341423	4.935000	1612.490967
-37.341423	4.935000	1606.816528
-36.341423	4.935000	1604.366943
-35.341423	4.935000	1603.781738
-34.341423	4.935000	1602.708496
-33.341423	4.935000	1615.112427
-32.341423	4.935000	1612.162354
-31.341423	4.935000	1612.168213
-30.341423	4.935000	1613.264771
-29.341423	4.935000	1610.573730
-28.341423	4.935000	1612.033813
-27.341423	4.935000	1611.452515
-26.341423	4.935000	1617.055054
-25.341423	4.935000	1605.288574
-24.341423	4.935000	1640.000000
-23.341423	4.935000	1616.531738
-22.341423	4.935000	1615.413940
-21.341423	4.935000	1617.010254
-20.341423	4.935000	1618.182861
-19.341423	4.935000	1600.000000
-18.341423	4.935000	1600.032349
-17.341423	4.935000	1600.000000
-16.341423	4.935000	1600.000000
-15.341423	4.935000	1607.189209
-14.341423	4.935000	1608.021973
-13.341423	4.935000	1619.490601
-12.341423	4.935000	1613.137085
-11.341423	4.935000	1612.938477
-10.341423	4.935000	1617.648682
-9.341423	4.935000	1611.342407
-8.341423	4.935000	1616.215088
-7.341423	4.935000	1615.032715
-6.341423	4.935000	1613.071655
-5.341423	4.935000	1609.376831
-4.341423	4.935000	1606.407837
-3.341423	4.935000	1603.222412
-2.341423	4.935000	1602.515869
-1.341423	4.935000	1600.325684
-0.341423	4.935000	1603.199829
0.658577	4.935000	1602.407837
1.658577	4.935000	1603.883911
2.658577	4.935000	1609.551758
3.658577	4.935000	1618.020874
4.658577	4.935000	1616.002686
5.658577	4.935000	1610.722046
6.658577	4.935000	1614.381592
7.658577	4.935000	1613.864746
8.658577	4.935000	1606.388184
9.658577	4.935000	1604.712646
10.658577	4.935000	1600.000000
11.658577	4.935000	1610.627075
12.658577	4.935000	1600.000000
13.658577	4.935000	1612.847778
14.658577	4.935000	1609.329956
15.658577	4.935000	1600.000000
16.658577	4.935000	1612.872070
17.658577	4.935000	1610.606812
18.658577	4.935000	1603.486084
19.658577	4.935000	1603.213135
20.658577	4.935000	1612.320923
21.658577	4.935000	1602.078247
22.658577	4.935000	1604.688843
23.658577	4.935000	1600.000000
24.658577	4.935000	1613.778687
-39.341423	5.935000	1604.234741
-38.341423	5.935000	1601.894287
-37.341423	5.935000	1603.796997
-36.341423	5.935000	1603.365234
-35.341423	5.935000	1601.695801
-34.341423	5.935000	1600.047241
-33.341423	5.935000	1600.000000
-32.341423	5.935000	1602.318237
-31.341423	5.935000	1616.636841
-30.341423	5.935000	1611.645386
-29.341423	5.935000	1616.354858
-28.341423	5.935000	1610.669189
-27.341423	5.935000	1617.856567
-26.341423	5.935000	1611.082642
-25.341423	5.935000	1605.760986
-24.341423	5.935000	1600.000000
-23.341423	5.935000	1614.814453
-22.341423	5.935000	1617.651001
-21.341423	5.935000	1615.632813
-20.341423	5.935000	1601.442505
-19.341423	5.935000	1601.874512
-18.341423	5.935000	1600.000000
-17.341423	5.935000	1600.000000
-16.341423	5.935000	1600.000000
-15.341423	5.935000	1606.741211
-14.341423	5.935000	1606.979614
-13.341423	5.935000	1606.127808
-12.341423	5.935000	1603.006348
-11.341423	5.935000	1612.233765
-10.341423	5.935000	1606.536377
-9.341423	5.935000	1600.895752
-8.341423	5.935000	1610.296631
-7.341423	5.935000	1615.984741
-6.341423	5.935000	1614.417725
-5.341423	5.935000	1607.046509
-4.341423	5.935000	1621.539429
-3.341423	5.935000	1604.868042
-2.341423	5.935000	1601.021362
-1.341423	5.935000	1601.436768
-0.341423	5.935000	1602.435425
0.658577	5.935000	1602.375854
1.658577	5.935000	1603.886353
2.658577	5.935000	1614.961792
3.658577	5.935000	1614.661621
4.658577	5.935000	1616.712891
5.658577	5.935000	1613.725342
6.658577	5.935000	1617.139771
7.658577	5.935000	1618.061035
8.658577	5.935000	1617.744873
9.658577	5.935000	1609.952148
10.658577	5.935000	1606.036377
11.658577	5.935000	1608.874146
12.658577	5.935000	1616.319458
13.658577	5.935000	1613.846191
14.658577	5.935000	1611.438965
15.658577	5.935000	1607.373901
16.658577	5.935000	1603.859253
17.658577	5.935000	1601.264648
18.658577	5.935000	1603.021606
19.658577	5.935000	1603.596924
20.658577	5.935000	1608.944946
21.658577	5.935000	1605.434570
22.658577	5.935000	1602.884888
23.658577	5.935000	1600.000000
24.658577	5.935000	1629.003052
-39.341423	6.935000	1603.624878
-38.341423	6.935000	1603.342773
-37.341423	6.935000	1603.703247
-36.341423	6.935000	1604.133057
-35.341423	6.935000	1602.831299
-34.341423	6.935000	1601.129639
-33.341423	6.935000	1600.000000
-32.341423	6.935000	1602.182129
-31.341423	6.935000	1610.851196
-30.341423	6.935000	1600.771973
-29.341423	6.935000	1606.694092
-28.341423	6.935000	1627.100220
-27.341423	6.935000	1618.294556
-26.341423	6.935000	1617.536621
-25.341423	6.935000	1608.893799
-24.341423	6.935000	1605.580566
-23.341423	6.935000	1613.838379
-22.341423	6.935000	1620.157227
-21.341423	6.935000	1616.460938
-20.341423	6.935000	1600.000000
-19.341423	6.935000	1601.446289
-18.341423	6.935000	1600.681885
-17.341423	6.935000	1600.000000
-16.341423	6.935000	1600.000000
-15.341423	6.935000	1606.316895
-14.341423	6.935000	1601.527222
-13.341423	6.935000	1600.000000
-12.341423	6.935000	1612.930542
-11.341423	6.935000	1617.652588
-10.341423	6.935000	1619.990112
-9.341423	6.935000	1618.037598
-8.341423	6.935000	1611.001343
-7.341423	6.935000	1615.814331
-6.341423	6.935000	1617.311279
-5.341423	6.935000	1613.133179
-4.341423	6.935000	1610.323242
-3.341423	6.935000	1612.776855
-2.341423	6.935000	1602.193970
-1.341423	6.935000	1602.704956
-0.341423	6.935000	1601.898071
0.658577	6.935000	1602.176636
1.658577	6.935000	1604.308838
2.658577	6.935000	1610.234253
3.658577	6.935000	1611.188843
4.658577	6.935000	1613.065063
5.658577	6.935000	1617.293457
6.658577	6.935000	1614.102539
7.658577	6.935000	1640.000000
8.658577	6.935000	1617.487305
9.658577	6.935000	1616.326416
10.658577	6.935000	1607.314697
11.658577	6.935000	1608.421143
12.658577	6.935000	1608.190796
13.658577	6.935000	1610.126099
14.658577	6.935000	1613.790283
15.658577	6.935000	1612.163208
16.658577	6.935000	1607.672607
17.658577	6.935000	1604.887939
18.658577	6.935000	1601.742310
19.658577	6.935000	1611.230103
20.658577	6.935000	1607.555298
21.658577	6.935000	1605.779907
22.658577	6.935000	1606.217285
23.658577	6.935000	1603.849854
24.658577	6.935000	1600.000000
-39.341423	7.935000	1604.873291
-38.341423	7.935000	1603.600586
-37.341423	7.935000	1604.073242
-36.341423	7.935000	1604.325195
-35.341423	7.935000	1603.437134
-34.341423	7.935000	1601.297852
-33.341423	7.935000	1600.183350
-32.341423	7.935000	1600.404053
-31.341423	7.935000	1600.000000
-30.341423	7.935000	1610.172241
-29.341423	7.935000	1607.452148
-28.341423	7.935000	1615.409424
-27.341423	7.935000	1618.812256
-26.341423	7.935000	1619.375854
-25.341423	7.935000	1615.644287
-24.341423	7.935000	1615.866577
-23.341423	7.935000	1617.398193
-22.341423	7.935000	1618.437256
-21.341423	7.935000	1620.365723
-20.341423	7.935000	1613.891479
-19.341423	7.935000	1602.409668
-18.341423	7.935000	1610.793823
-17.341423	7.935000	1602.845825
-16.341423	7.935000	1608.627319
-15.341423	7.935000	1604.068970
-14.341423	7.935000	1600.000000
-13.341423	7.935000	1600.000000
-12.341423	7.935000	1602.346802
-11.341423	7.935000	1615.226929
-10.341423	7.935000	1619.636108
-9.341423	7.935000	1619.645996
-8.341423	7.935000	1619.245117
-7.341423	7.935000	1619.530884
-6.341423	7.935000	1615.015381
-5.341423	7.935000	1612.916992
-4.341423	7.935000	1611.680420
-3.341423	7.935000	1615.590454
-2.341423	7.935000	1605.684082
-1.341423	7.935000	1601.678589
-0.341423	7.935000	1601.419189
0.658577	7.935000	1602.210449
1.658577	7.935000	1610.978149
2.658577	7.935000	1609.106445
3.658577	7.935000	1615.970337
4.658577	7.935000	1615.776123
5.658577	7.935000	1618.750244
6.658577	7.935000	1615.206787
7.658577	7.935000	1617.195679
8.658577	7.935000	1614.300293
9.658577	7.935000	1615.913086
10.658577	7.935000	1611.082642
11.658577	7.935000	1609.941895
12.658577	7.935000	1600.000000
13.658577	7.935000	1609.153809
14.658577	7.935000	1603.258545
15.658577	7.935000	1610.371338
16.658577	7.935000	1612.911743
17.658577	7.935000	1611.864258
18.658577	7.935000	1606.743164
19.658577	7.935000	1612.437988
20.658577	7.935000	1607.146484
21.658577	7.935000	1607.916382
22.658577	7.935000	1608.651855
23.658577	7.935000	1611.505249
24.658577	7.935000	1602.227905
-39.341423	8.935000	1605.222046
-38.341423	8.935000	1604.152222
-37.341423	8.935000	1603.198120
-36.341423	8.935000	1602.313721
-35.341423	8.935000	1604.620728
-34.341423	8.935000	1603.171753
-33.341423	8.935000	1601.993652
-32.341423	8.935000	1604.294189
-31.341423	8.935000	1601.900635
-30.341423	8.935000	1610.864746
-29.341423	8.935000	1610.538452
-28.341423	8.935000	1608.624268
-27.341423	8.935000	1617.059204
-26.341423	8.935000	1616.842651
-25.341423	8.935000	1615.749878
-24.341423	8.935000	1617.871826
-23.341423	8.935000	1618.421021
-22.341423	8.935000	1620.636475
-21.341423	8.935000	1617.755615
-20.341423	8.935000	1617.479980
-19.341423	8.935000	1615.858643
-18.341423	8.935000	1613.129639
-17.341423	8.935000	1602.027588
-16.341423	8.935000	1603.470581
-15.341423	8.935000	1605.195557
-14.341423	8.935000	1600.000000
-13.341423	8.935000	1610.637329
-12.341423	8.935000	1602.831055
-11.341423	8.935000	1617.837646
-10.341423	8.935000	1620.705200
-9.341423	8.935000	1621.456055
-8.341423	8.935000	1620.630859
-7.341423	8.935000	1620.237549
-6.341423	8.935000	1611.725830
-5.341423	8.935000	1618.343384
-4.341423	8.935000	1620.707397
-3.341423	8.935000	1614.680176
-2.341423	8.935000	1607.036865
-1.341423	8.935000	1601.906128
-0.341423	8.935000	1602.805420
0.658577	8.935000	1604.627808
1.658577	8.935000	1612.818970
2.658577	8.935000	1611.143188
3.658577	8.935000	1611.589966
4.658577	8.935000	1615.288208
5.658577	8.935000	1617.162964
6.658577	8.935000	1600.000000
7.658577	8.935000	1621.046021
8.658577	8.935000	1616.991211
9.658577	8.935000	1616.977173
10.658577	8.935000	1618.198120
11.658577	8.935000	1615.658325
12.658577	8.935000	1613.571289
13.658577	8.935000	1612.353271
14.658577	8.935000	1609.126099
15.658577	8.935000	1604.832886
16.658577	8.935000	1603.851929
17.658577	8.935000	1608.219360
18.658577	8.935000	1618.617554
19.658577	8.935000	1605.392334
20.658577	8.935000	1609.735840
21.658577	8.935000	1615.337036
22.658577	8.935000	1616.441284
23.658577	8.935000	1607.582520
24.658577	8.935000	1610.550293
-39.341423	9.935000	1603.621582
-38.341423	9.935000	1603.590210
-37.341423	9.935000	1603.130859
-36.341423	9.935000	1603.964600
-35.341423	9.935000	1603.281616
-34.341423	9.935000	1603.251709
-33.341423	9.935000	1602.972778
-32.341423	9.935000	1604.038574
-31.341423	9.935000	1603.154907
-30.341423	9.935000	1600.564575
-29.341423	9.935000	1625.262695
-28.341423	9.935000	1607.314941
-27.341423	9.935000	1613.983032
-26.341423	9.935000	1615.780762
-25.341423	9.935000	1615.563354
-24.341423	9.935000	1613.098877
-23.341423	9.935000	1617.348511
-22.341423	9.935000	1618.182251
-21.341423	9.935000	1613.011963
-20.341423	9.935000	1614.210327
-19.341423	9.935000	1612.663574
-18.341423	9.935000	1616.338623
-17.341423	9.935000	1603.419678
-16.341423	9.935000	1606.576416
-15.341423	9.935000	1605.067749
-14.341423	9.935000	1604.809326
-13.341423	9.935000	1606.954468
-12.341423	9.935000	1610.375488
-11.341423	9.935000	1617.737671
-10.341423	9.935000	1620.980347
-9.341423	9.935000	1621.556396
-8.341423	9.935000	1619.970581
-7.341423	9.935000	1617.930908
-6.341423	9.935000	1603.486206
-5.341423	9.935000	1600.627319
-4.341423	9.935000	1614.386597
-3.341423	9.935000	1612.202637
-2.341423	9.935000	1611.591797
-1.341423	9.935000	1605.757690
-0.341423	9.935000	1605.815552
0.658577	9.935000	1608.852173
1.658577	9.935000	1611.411011
2.658577	9.935000	1617.494019
3.658577	9.935000	1617.756104
4.658577	9.935000	1613.671631
5.658577	9.935000	1617.029541
6.658577	9.935000	1612.845215
7.658577	9.935000	1617.551758
8.658577	9.935000	1617.922241
9.658577	9.935000	1616.500122
10.658577	9.935000	1616.507202
11.658577	9.935000	1615.887939
12.658577	9.935000	1616.780640
13.658577	9.935000	1612.170288
14.658577	9.935000	1614.062012
15.658577	9.935000	1618.949463
16.658577	9.935000	1600.000000
17.658577	9.935000	1602.313354
18.658577	9.935000	1617.864868
19.658577	9.935000	1611.596680
20.658577	9.935000	1615.433105
21.658577	9.935000	1609.911377
22.658577	9.935000	1611.204224
23.658577	9.935000	1619.803223
24.658577	9.935000	1600.000000
-39.341423	10.935000	1603.374634
-38.341423	10.935000	1603.228638
-37.341423	10.935000	1602.971680
-36.341423	10.935000	1603.159180
-35.341423	10.935000	1603.443726
-34.341423	10.935000	1603.168945
-33.341423	10.935000	1601.511353
-32.341423	10.935000	1602.346313
-31.341423	10.935000	1604.106445
-30.341423	10.935000	1601.466675
-29.341423	10.935000	1602.782104
-28.341423	10.935000	1606.559814
-27.341423	10.935000	1609.880005
-26.341423	10.935000	1615.409302
-25.341423	10.935000	1613.567383
-24.341423	10.935000	1621.369019
-23.341423	10.935000	1600.583618
-22.341423	10.935000	1612.946289
-21.341423	10.935000	1615.986206
-20.341423	10.935000	1609.929688
-19.341423	10.935000	1612.060547
-18.341423	10.935000	1609.823120
-17.341423	10.935000	1608.747070
-16.341423	10.935000	1619.682495
-15.341423	10.935000	1607.954834
-14.341423	10.935000	1606.551270
-13.341423	10.935000	1609.516846
-12.341423	10.935000	1614.725098
-11.341423	10.935000	1613.323364
-10.341423	10.935000	1620.272095
-9.341423	10.935000	1619.448730
-8.341423	10.935000	1620.374268
-7.341423	10.935000	1627.961426
-6.341423	10.935000	1602.895630
-5.341423	10.935000	1601.642944
-4.341423	10.935000	1600.000000
-3.341423	10.935000	1606.199341
-2.341423	10.935000	1615.689575
-1.341423	10.935000	1603.410645
-0.341423	10.935000	1604.260132
0.658577	10.935000	1609.042480
1.658577	10.935000	1613.836548
2.658577	10.935000	1618.038574
3.658577	10.935000	1634.669800
4.658577	10.935000	1613.721924
5.658577	10.935000	1614.570435
6.658577	10.935000	1615.483276
7.658577	10.935000	1622.676758
8.658577	10.935000	1609.988770
9.658577	10.935000	1617.402832
10.658577	10.935000	1612.098145
11.658577	10.935000	1618.401367
12.658577	10.935000	1614.165771
13.658577	10.935000	1613.993652
14.658577	10.935000	1618.651367
15.658577	10.935000	1601.638062
16.658577	10.935000	1640.000000
17.658577	10.935000	1619.776123
18.658577	10.935000	1619.768311
19.658577	10.935000	1624.651489
20.658577	10.935000	1606.888062
21.658577	10.935000	1610.374023
22.658577	10.935000	1603.043701
23.658577	10.935000	1617.750977
24.658577	10.935000	1612.589844
-39.341423	11.935000	1640.000000
-38.341423	11.935000	1601.381104
-37.341423	11.935000	1602.020264
-36.341423	11.935000	1602.496094
-35.341423	11.935000	1601.707275
-34.341423	11.935000	1601.106934
-33.341423	11.935000	1612.827026
-32.341423	11.935000	1601.198975
-31.341423	11.935000	1602.907593
-30.341423	11.935000	1600.498779
-29.341423	11.935000	1602.881714
-28.341423	11.935000	1604.645996
-27.341423	11.935000	1613.465942
-26.341423	11.935000	1615.799072
-25.341423	11.935000	1620.421753
-24.341423	11.935000	1617.533691
-23.341423	11.935000	1604.907349
-22.341423	11.935000	1614.582153
-21.341423	11.935000	1612.294067
-20.341423	11.935000	1613.793823
-19.341423	11.935000	1610.779297
-18.341423	11.935000	1613.649780
-17.341423	11.935000	1619.423096
-16.341423	11.935000	1617.938843
-15.341423	11.935000	1612.849609
-14.341423	11.935000	1606.705688
-13.341423	11.935000	1610.248047
-12.341423	11.935000	1614.714722
-11.341423	11.935000	1611.908325
-10.341423	11.935000	1610.339111
-9.341423	11.935000	1620.007202
-8.341423	11.935000	1619.429810
-7.341423	11.935000	1620.068359
-6.341423	11.935000	1617.412598
-5.341423	11.935000	1602.273804
-4.341423	11.935000	1600.000000
-3.341423	11.935000	1606.736938
-2.341423	11.935000	1610.645386
-1.341423	11.935000	1609.382446
-0.341423	11.935000	1604.920898
0.658577	11.935000	1613.307861
1.658577	11.935000	1613.404785
2.658577	11.935000	1617.687622
3.658577	11.935000	1615.789185
4.658577	11.935000	1611.342529
5.658577	11.935000	1617.306641
6.658577	11.935000	1606.926880
7.658577	11.935000	1640.000000
8.658577	11.935000	1603.222900
9.658577	11.935000	1615.423340
10.658577	11.935000	1610.704224
11.658577	11.935000	1614.851685
12.658577	11.935000	1608.850830
13.658577	11.935000	1617.489258
14.658577	11.935000	1616.377808
15.658577	11.935000	1600.000000
16.658577	11.935000	1615.128296
17.658577	11.935000	1640.000000
18.658577	11.935000	1623.014282
19.658577	11.935000	1640.000000
20.658577	11.935000	1614.960571
21.658577	11.935000	1609.578735
22.658577	11.935000	1606.491455
23.658577	11.935000	1607.512451
24.658577	11.935000	1602.826538
-39.341423	12.935000	1601.099854
-38.341423	12.935000	1601.707397
-37.341423	12.935000	1600.254150
-36.341423	12.935000	1600.637085
-35.341423	12.935000	1601.195190
-34.341423	12.935000	1602.478638
-33.341423	12.935000	1602.868652
-32.341423	12.935000	1601.122803
-31.341423	12.935000	1601.556885
-30.341423	12.935000	1603.507690
-29.341423	12.935000	1604.524170
-28.341423	12.935000	1604.092651
-27.341423	12.935000	1616.622681
-26.341423	12.935000	1619.790405
-25.341423	12.935000	1621.214600
-24.341423	12.935000	1606.072510
-23.341423	12.935000	1609.044678
-22.341423	12.935000	1601.014404
-21.341423	12.935000	1605.770508
-20.341423	12.935000	1615.034180
-19.341423	12.935000	1604.320068
-18.341423	12.935000	1613.870239
-17.341423	12.935000	1620.611816
-16.341423	12.935000	1619.379150
-15.341423	12.935000	1609.232300
-14.341423	12.935000	1609.054077
-13.341423	12.935000	1613.267090
-12.341423	12.935000	1618.210083
-11.341423	12.935000	1615.798462
-10.341423	12.935000	1614.663818
-9.341423	12.935000	1616.203979
-8.341423	12.935000	1617.243530
-7.341423	12.935000	1616.277710
-6.341423	12.935000	1621.363525
-5.341423	12.935000	1612.078613
-4.341423	12.935000	1604.632935
-3.341423	12.935000	1610.608276
-2.341423	12.935000	1616.584961
-1.341423	12.935000	1615.256714
-0.341423	12.935000	1605.706787
0.658577	12.935000	1612.198853
1.658577	12.935000	1618.552979
2.658577	12.935000	1614.840576
3.658577	12.935000	1617.943359
4.658577	12.935000	1614.335571
5.658577	12.935000	1610.893677
6.658577	12.935000	1603.007202
7.658577	12.935000	1601.190552
8.658577	12.935000	1607.374512
9.658577	12.935000	1600.754639
10.658577	12.935000	1611.637451
11.658577	12.935000	1614.077393
12.658577	12.935000	1614.405273
13.658577	12.935000	1603.302612
14.658577	12.935000	1618.875732
15.658577	12.935000	1618.689819
16.658577	12.935000	1617.505615
17.658577	12.935000	1615.477539
18.658577	12.935000	1632.480347
19.658577	12.935000	1618.812622
20.658577	12.935000	1619.592529
21.658577	12.935000	1636.006104
22.658577	12.935000	1611.657104
23.658577	12.935000	1610.775269
24.658577	12.935000	1611.001953
-39.341423	13.935000	1601.126587
-38.341423	13.935000	1601.968262
-37.341423	13.935000	1601.275757
-36.341423	13.935000	1603.177856
-35.341423	13.935000	1602.852539
-34.341423	13.935000	1603.108887
-33.341423	13.935000	1602.896362
-32.341423	13.935000	1602.973145
-31.341423	13.935000	1602.787354
-30.341423	13.935000	1602.241699
-29.341423	13.935000	1603.047363
-28.341423	13.935000	1617.703125
-27.341423	13.935000	1618.268799
-26.341423	13.935000	1620.548950
-25.341423	13.935000	1615.314819
-24.341423	13.935000	1604.851807
-23.341423	13.935000	1600.000000
-22.341423	13.935000	1615.114990
-21.341423	13.935000	1606.223877
-20.341423	13.935000	1603.745483
-19.341423	13.935000	1600.000000
-18.341423	13.935000	1601.444702
-17.341423	13.935000	1610.738770
-16.341423	13.935000	1618.185059
-15.341423	13.935000	1608.796753
-14.341423	13.935000	1603.717285
-13.341423	13.935000	1605.972656
-12.341423	13.935000	1614.939819
-11.341423	13.935000	1601.531250
-10.341423	13.935000	1608.894287
-9.341423	13.935000	1610.481201
-8.341423	13.935000	1618.440308
-7.341423	13.935000	1614.344360
-6.341423	13.935000	1602.467407
-5.341423	13.935000	1610.943848
-4.341423	13.935000	1605.395996
-3.341423	13.935000	1607.596680
-2.341423	13.935000	1618.983032
-1.341423	13.935000	1615.126221
-0.341423	13.935000	1606.532593
0.658577	13.935000	1611.302612
1.658577	13.935000	1614.656982
2.658577	13.935000	1615.330688
3.658577	13.935000	1610.004517
4.658577	13.935000	1600.000000
5.658577	13.935000	1617.184937
6.658577	13.935000	1601.355103
7.658577	13.935000	1600.568481
8.658577	13.935000	1600.000000
9.658577	13.935000	1614.124634
10.658577	13.935000	1615.599731
11.658577	13.935000	1617.318237
12.658577	13.935000	1614.239380
13.658577	13.935000	1616.412109
14.658577	13.935000	1618.990234
15.658577	13.935000	1615.010132
16.658577	13.935000	1623.395386
17.658577	13.935000	1618.514526
18.658577	13.935000	1609.598633
19.658577	13.935000	1619.394531
20.658577	13.935000	1611.356445
21.658577	13.935000	1640.000000
22.658577	13.935000	1625.049438
23.658577	13.935000	1602.285278
24.658577	13.935000	1614.229858
-39.341423	14.935000	1604.035889
-38.341423	14.935000	1604.692017
-37.341423	14.935000	1604.066284
-36.341423	14.935000	1603.850830
-35.341423	14.935000	1603.650757
-34.341423	14.935000	1604.808228
-33.341423	14.935000	1605.165161
-32.341423	14.935000	1603.120483
-31.341423	14.935000	1604.931274
-30.341423	14.935000	1603.593140
-29.341423	14.935000	1600.000000
-28.341423	14.935000	1618.397583
-27.341423	14.935000	1617.424194
-26.341423	14.935000	1617.152466
-25.341423	14.935000	1617.531128
-24.341423	14.935000	1616.661011
-23.341423	14.935000	1612.409546
-22.341423	14.935000	1615.775635
-21.341423	14.935000	1606.803101
-20.341423	14.935000	1608.624390
-19.341423	14.935000	1600.000000
-18.341423	14.935000	1601.582886
-17.341423	14.935000	1614.060181
-16.341423	14.935000	1603.131226
-15.341423	14.935000	1608.178467
-14.341423	14.935000	1603.732666
-13.341423	14.935000	1603.251831
-12.341423	14.935000	1601.054932
-11.341423	14.935000	1603.745239
-10.341423	14.935000	1607.087402
-9.341423	14.935000	1621.636475
-8.341423	14.935000	1613.586792
-7.341423	14.935000	1606.769409
-6.341423	14.935000	1609.459839
-5.341423	14.935000	1617.017578
-4.341423	14.935000	1615.347290
-3.341423	14.935000	1608.641113
-2.341423	14.935000	1601.216309
-1.341423	14.935000	1609.390137
-0.341423	14.935000	1625.077271
0.658577	14.935000	1617.997192
1.658577	14.935000	1618.258179
2.658577	14.935000	1614.551758
3.658577	14.935000	1608.351685
4.658577	14.935000	1629.841309
5.658577	14.935000	1609.931274
6.658577	14.935000	1618.333252
7.658577	14.935000	1603.369141
8.658577	14.935000	1613.844360
9.658577	14.935000	1613.307373
10.658577	14.935000	1616.252686
11.658577	14.935000	1617.859741
12.658577	14.935000	1609.546875
13.658577	14.935000	1618.772705
14.658577	14.935000	1618.548828
15.658577	14.935000	1619.047607
16.658577	14.935000	1608.474854
17.658577	14.935000	1619.502808
18.658577	14.935000	1615.701294
19.658577	14.935000	1621.095093
20.658577	14.935000	1632.644043
21.658577	14.935000	1619.568970
22.658577	14.935000	1618.636353
23.658577	14.935000	1636.968506
24.658577	14.935000	1617.056519
-39.341423	15.935000	1603.912720
-38.341423	15.935000	1604.723511
-37.341423	15.935000	1604.633911
-36.341423	15.935000	1606.039673
-35.341423	15.935000	1604.174561
-34.341423	15.935000	1604.435059
-33.341423	15.935000	1604.597900
-32.341423	15.935000	1605.216431
-31.341423	15.935000	1605.081177
-30.341423	15.935000	1614.661743
-29.341423	15.935000	1609.679565
-28.341423	15.935000	1609.518433
-27.341423	15.935000	1617.282715
-26.341423	15.935000	1618.174927
-25.341423	15.935000	1619.487915
-24.341423	15.935000	1616.248413
-23.341423	15.935000	1621.927368
-22.341423	15.935000	1618.757935
-21.341423	15.935000	1615.456299
-20.341423	15.935000	1609.585815
-19.341423	15.935000	1613.505493
-18.341423	15.935000	1601.096069
-17.341423	15.935000	1600.000000
-16.341423	15.935000	1600.000000
-15.341423	15.935000	1603.098633
-14.341423	15.935000	1603.289185
-13.341423	15.935000	1604.158569
-12.341423	15.935000	1604.452515
-11.341423	15.935000	1602.578857
-10.341423	15.935000	1620.162720
-9.341423	15.935000	1600.049805
-8.341423	15.935000	1619.710938
-7.341423	15.935000	1604.524658
-6.341423	15.935000	1614.158569
-5.341423	15.935000	1615.635010
-4.341423	15.935000	1616.713867
-3.341423	15.935000	1616.288940
-2.341423	15.935000	1613.418091
-1.341423	15.935000	1606.229004
-0.341423	15.935000	1618.165527
0.658577	15.935000	1620.313477
1.658577	15.935000	1614.528442
2.658577	15.935000	1612.905640
3.658577	15.935000	1610.935303
4.658577	15.935000	1619.133911
5.658577	15.935000	1607.220093
6.658577	15.935000	1613.167603
7.658577	15.935000	1616.743896
8.658577	15.935000	1616.516968
9.658577	15.935000	1614.650513
10.658577	15.935000	1614.576172
11.658577	15.935000	1613.129517
12.658577	15.935000	1609.054932
13.658577	15.935000	1608.656982
14.658577	15.935000	1630.396851
15.658577	15.935000	1616.386963
16.658577	15.935000	1629.624023
17.658577	15.935000	1618.310181
18.658577	15.935000	1624.235229
19.658577	15.935000	1640.000000
20.658577	15.935000	1619.278076
21.658577	15.935000	1640.000000
22.658577	15.935000	1613.745605
23.658577	15.935000	1600.000000
24.658577	15.935000	1618.675049
