#XList		#YList		#IList		
-39.341423	-21.065000	49.046642
-38.341423	-21.065000	45.742115
-37.341423	-21.065000	39.426540
-36.341423	-21.065000	35.947201
-35.341423	-21.065000	42.678967
-34.341423	-21.065000	61.558426
-33.341423	-21.065000	62.805897
-32.341423	-21.065000	60.023037
-31.341423	-21.065000	70.987961
-30.341423	-21.065000	61.400127
-29.341423	-21.065000	77.030777
-28.341423	-21.065000	60.824318
-27.341423	-21.065000	75.789101
-26.341423	-21.065000	59.170734
-25.341423	-21.065000	59.923302
-24.341423	-21.065000	92.616570
-23.341423	-21.065000	17.180223
-22.341423	-21.065000	71.724274
-21.341423	-21.065000	65.232124
-20.341423	-21.065000	80.848190
-19.341423	-21.065000	23.120043
-18.341423	-21.065000	65.266647
-17.341423	-21.065000	77.053871
-16.341423	-21.065000	73.952538
-15.341423	-21.065000	71.765282
-14.341423	-21.065000	73.279053
-13.341423	-21.065000	74.612701
-12.341423	-21.065000	77.094551
-11.341423	-21.065000	79.591103
-10.341423	-21.065000	116.342316
-9.341423	-21.065000	61.540062
-8.341423	-21.065000	61.862213
-7.341423	-21.065000	48.320637
-6.341423	-21.065000	56.895454
-5.341423	-21.065000	59.126770
-4.341423	-21.065000	65.122520
-3.341423	-21.065000	79.767517
-2.341423	-21.065000	45.374790
-1.341423	-21.065000	44.220596
-0.341423	-21.065000	55.810200
0.658577	-21.065000	52.246395
1.658577	-21.065000	53.114407
2.658577	-21.065000	59.723358
3.658577	-21.065000	59.631145
4.658577	-21.065000	35.627300
5.658577	-21.065000	24.345297
6.658577	-21.065000	11.063324
7.658577	-21.065000	86.301666
8.658577	-21.065000	16.878313
9.658577	-21.065000	14.596601
10.658577	-21.065000	31.759687
11.658577	-21.065000	54.111183
12.658577	-21.065000	58.009312
13.658577	-21.065000	60.468971
14.658577	-21.065000	62.157303
15.658577	-21.065000	58.893230
16.658577	-21.065000	42.076271
17.658577	-21.065000	54.546173
18.658577	-21.065000	59.576649
19.658577	-21.065000	82.911613
20.658577	-21.065000	60.142735
21.658577	-21.065000	65.941368
22.658577	-21.065000	127.689079
23.658577	-21.065000	2.227608
24.658577	-21.065000	324.620209
-39.341423	-20.065000	59.229115
-38.341423	-20.065000	57.008835
-37.341423	-20.065000	41.994576
-36.341423	-20.065000	31.606705
-35.341423	-20.065000	33.655273
-34.341423	-20.065000	50.739670
-33.341423	-20.065000	55.651138
-32.341423	-20.065000	61.575527
-31.341423	-20.065000	64.908295
-30.341423	-20.065000	63.467766
-29.341423	-20.065000	64.385414
-28.341423	-20.065000	59.298004
-27.341423	-20.065000	62.708939
-26.341423	-20.065000	60.160725
-25.341423	-20.065000	65.154114
-24.341423	-20.065000	56.766567
-23.341423	-20.065000	52.911591
-22.341423	-20.065000	79.220772
-21.341423	-20.065000	64.527763
-20.341423	-20.065000	61.950825
-19.341423	-20.065000	40.514172
-18.341423	-20.065000	44.277946
-17.341423	-20.065000	70.694801
-16.341423	-20.065000	73.048691
-15.341423	-20.065000	74.994026
-14.341423	-20.065000	79.409660
-13.341423	-20.065000	75.240379
-12.341423	-20.065000	71.112701
-11.341423	-20.065000	71.979782
-10.341423	-20.065000	64.285385
-9.341423	-20.065000	56.320313
-8.341423	-20.065000	49.973297
-7.341423	-20.065000	44.821213
-6.341423	-20.065000	49.867954
-5.341423	-20.065000	44.020752
-4.341423	-20.065000	70.204262
-3.341423	-20.065000	74.113052
-2.341423	-20.065000	60.726486
-1.341423	-20.065000	54.935287
-0.341423	-20.065000	56.346291
0.658577	-20.065000	43.430359
1.658577	-20.065000	45.367630
2.658577	-20.065000	43.918102
3.658577	-20.065000	34.933796
4.658577	-20.065000	27.916758
5.658577	-20.065000	21.754189
6.658577	-20.065000	76.014809
7.658577	-20.065000	133.379120
8.658577	-20.065000	73.558052
9.658577	-20.065000	39.665123
10.658577	-20.065000	18.830488
11.658577	-20.065000	32.453732
12.658577	-20.065000	57.676483
13.658577	-20.065000	59.297939
14.658577	-20.065000	61.041439
15.658577	-20.065000	58.871841
16.658577	-20.065000	58.281288
17.658577	-20.065000	57.986351
18.658577	-20.065000	63.609180
19.658577	-20.065000	72.132790
20.658577	-20.065000	74.213554
21.658577	-20.065000	62.916626
22.658577	-20.065000	70.291382
23.658577	-20.065000	7.852686
24.658577	-20.065000	269.839935
-39.341423	-19.065000	62.560307
-38.341423	-19.065000	55.706154
-37.341423	-19.065000	50.765713
-36.341423	-19.065000	39.361820
-35.341423	-19.065000	53.835106
-34.341423	-19.065000	67.533669
-33.341423	-19.065000	45.400894
-32.341423	-19.065000	64.008545
-31.341423	-19.065000	72.786819
-30.341423	-19.065000	68.857910
-29.341423	-19.065000	61.436398
-28.341423	-19.065000	60.316364
-27.341423	-19.065000	61.412212
-26.341423	-19.065000	59.079411
-25.341423	-19.065000	60.892551
-24.341423	-19.065000	63.295517
-23.341423	-19.065000	60.736027
-22.341423	-19.065000	60.371410
-21.341423	-19.065000	57.817646
-20.341423	-19.065000	62.672859
-19.341423	-19.065000	63.636559
-18.341423	-19.065000	53.669628
-17.341423	-19.065000	68.954247
-16.341423	-19.065000	74.550102
-15.341423	-19.065000	74.817078
-14.341423	-19.065000	77.723007
-13.341423	-19.065000	80.902496
-12.341423	-19.065000	69.649277
-11.341423	-19.065000	67.361336
-10.341423	-19.065000	58.571911
-9.341423	-19.065000	52.947197
-8.341423	-19.065000	46.611443
-7.341423	-19.065000	57.371586
-6.341423	-19.065000	52.428032
-5.341423	-19.065000	51.072430
-4.341423	-19.065000	60.436592
-3.341423	-19.065000	68.409492
-2.341423	-19.065000	62.017120
-1.341423	-19.065000	54.865196
-0.341423	-19.065000	52.829819
0.658577	-19.065000	38.968327
1.658577	-19.065000	37.549942
2.658577	-19.065000	42.404942
3.658577	-19.065000	38.909634
4.658577	-19.065000	37.452564
5.658577	-19.065000	34.442364
6.658577	-19.065000	45.615849
7.658577	-19.065000	84.557709
8.658577	-19.065000	73.619225
9.658577	-19.065000	53.936440
10.658577	-19.065000	23.752520
11.658577	-19.065000	57.676163
12.658577	-19.065000	68.430183
13.658577	-19.065000	60.179039
14.658577	-19.065000	61.374584
15.658577	-19.065000	64.915756
16.658577	-19.065000	55.858700
17.658577	-19.065000	63.770893
18.658577	-19.065000	59.680374
19.658577	-19.065000	63.604286
20.658577	-19.065000	66.592087
21.658577	-19.065000	67.949532
22.658577	-19.065000	71.230888
23.658577	-19.065000	107.235001
24.658577	-19.065000	89.549637
-39.341423	-18.065000	66.450691
-38.341423	-18.065000	60.078735
-37.341423	-18.065000	67.549545
-36.341423	-18.065000	52.453686
-35.341423	-18.065000	61.242504
-34.341423	-18.065000	50.936527
-33.341423	-18.065000	60.324928
-32.341423	-18.065000	64.880798
-31.341423	-18.065000	64.245720
-30.341423	-18.065000	72.229630
-29.341423	-18.065000	74.007378
-28.341423	-18.065000	63.468449
-27.341423	-18.065000	61.709396
-26.341423	-18.065000	76.830406
-25.341423	-18.065000	58.770061
-24.341423	-18.065000	59.367554
-23.341423	-18.065000	60.935112
-22.341423	-18.065000	60.679260
-21.341423	-18.065000	57.588696
-20.341423	-18.065000	60.482346
-19.341423	-18.065000	62.537407
-18.341423	-18.065000	63.813274
-17.341423	-18.065000	74.299805
-16.341423	-18.065000	74.607635
-15.341423	-18.065000	78.217697
-14.341423	-18.065000	78.537445
-13.341423	-18.065000	75.950554
-12.341423	-18.065000	74.588631
-11.341423	-18.065000	61.306755
-10.341423	-18.065000	59.882919
-9.341423	-18.065000	58.526352
-8.341423	-18.065000	52.560181
-7.341423	-18.065000	56.051426
-6.341423	-18.065000	59.005501
-5.341423	-18.065000	74.816101
-4.341423	-18.065000	63.239582
-3.341423	-18.065000	79.480629
-2.341423	-18.065000	54.381660
-1.341423	-18.065000	57.481152
-0.341423	-18.065000	52.274197
0.658577	-18.065000	43.050800
1.658577	-18.065000	44.291882
2.658577	-18.065000	50.407864
3.658577	-18.065000	37.557201
4.658577	-18.065000	63.348789
5.658577	-18.065000	70.067612
6.658577	-18.065000	73.224625
7.658577	-18.065000	73.093704
8.658577	-18.065000	73.114433
9.658577	-18.065000	75.276146
10.658577	-18.065000	71.709427
11.658577	-18.065000	72.909195
12.658577	-18.065000	71.886063
13.658577	-18.065000	65.386894
14.658577	-18.065000	51.668247
15.658577	-18.065000	50.600887
16.658577	-18.065000	59.778149
17.658577	-18.065000	56.844803
18.658577	-18.065000	54.411564
19.658577	-18.065000	58.573883
20.658577	-18.065000	71.756645
21.658577	-18.065000	74.027786
22.658577	-18.065000	65.141281
23.658577	-18.065000	60.037231
24.658577	-18.065000	69.165215
-39.341423	-17.065000	66.667336
-38.341423	-17.065000	65.938797
-37.341423	-17.065000	71.367516
-36.341423	-17.065000	63.929127
-35.341423	-17.065000	65.289284
-34.341423	-17.065000	89.317223
-33.341423	-17.065000	77.230324
-32.341423	-17.065000	57.486019
-31.341423	-17.065000	58.111229
-30.341423	-17.065000	71.773262
-29.341423	-17.065000	76.860619
-28.341423	-17.065000	62.769863
-27.341423	-17.065000	59.252949
-26.341423	-17.065000	59.897415
-25.341423	-17.065000	59.036407
-24.341423	-17.065000	61.295547
-23.341423	-17.065000	60.186554
-22.341423	-17.065000	60.960941
-21.341423	-17.065000	63.257587
-20.341423	-17.065000	66.925331
-19.341423	-17.065000	73.253059
-18.341423	-17.065000	82.222504
-17.341423	-17.065000	74.557289
-16.341423	-17.065000	75.095657
-15.341423	-17.065000	76.731033
-14.341423	-17.065000	77.471954
-13.341423	-17.065000	78.739967
-12.341423	-17.065000	75.858513
-11.341423	-17.065000	64.769562
-10.341423	-17.065000	60.132713
-9.341423	-17.065000	54.797997
-8.341423	-17.065000	59.043682
-7.341423	-17.065000	72.405167
-6.341423	-17.065000	71.214195
-5.341423	-17.065000	66.655373
-4.341423	-17.065000	66.686417
-3.341423	-17.065000	56.250839
-2.341423	-17.065000	59.822147
-1.341423	-17.065000	65.182152
-0.341423	-17.065000	46.544086
0.658577	-17.065000	51.621445
1.658577	-17.065000	57.258404
2.658577	-17.065000	53.253494
3.658577	-17.065000	42.091663
4.658577	-17.065000	60.218979
5.658577	-17.065000	66.927681
6.658577	-17.065000	59.407829
7.658577	-17.065000	67.365395
8.658577	-17.065000	78.370773
9.658577	-17.065000	74.586739
10.658577	-17.065000	73.672485
11.658577	-17.065000	79.859169
12.658577	-17.065000	75.631325
13.658577	-17.065000	65.349358
14.658577	-17.065000	48.883430
15.658577	-17.065000	64.525902
16.658577	-17.065000	66.711807
17.658577	-17.065000	20.416283
18.658577	-17.065000	13.769870
19.658577	-17.065000	35.967247
20.658577	-17.065000	85.533730
21.658577	-17.065000	71.070740
22.658577	-17.065000	71.249794
23.658577	-17.065000	53.625675
24.658577	-17.065000	64.697304
-39.341423	-16.065000	61.210022
-38.341423	-16.065000	66.199715
-37.341423	-16.065000	76.795990
-36.341423	-16.065000	74.019722
-35.341423	-16.065000	72.046974
-34.341423	-16.065000	78.948570
-33.341423	-16.065000	74.890076
-32.341423	-16.065000	76.439163
-31.341423	-16.065000	82.289574
-30.341423	-16.065000	75.916771
-29.341423	-16.065000	64.845482
-28.341423	-16.065000	62.715710
-27.341423	-16.065000	63.717209
-26.341423	-16.065000	74.247673
-25.341423	-16.065000	63.034954
-24.341423	-16.065000	61.538662
-23.341423	-16.065000	61.542210
-22.341423	-16.065000	58.910954
-21.341423	-16.065000	55.976730
-20.341423	-16.065000	67.108894
-19.341423	-16.065000	75.059425
-18.341423	-16.065000	81.346771
-17.341423	-16.065000	75.145058
-16.341423	-16.065000	63.888859
-15.341423	-16.065000	73.801491
-14.341423	-16.065000	74.357857
-13.341423	-16.065000	72.967056
-12.341423	-16.065000	67.820389
-11.341423	-16.065000	62.444447
-10.341423	-16.065000	56.764179
-9.341423	-16.065000	63.361530
-8.341423	-16.065000	57.916546
-7.341423	-16.065000	51.775097
-6.341423	-16.065000	57.219162
-5.341423	-16.065000	67.248833
-4.341423	-16.065000	56.445358
-3.341423	-16.065000	47.412453
-2.341423	-16.065000	43.490490
-1.341423	-16.065000	58.393063
-0.341423	-16.065000	63.642353
0.658577	-16.065000	62.286934
1.658577	-16.065000	59.565350
2.658577	-16.065000	30.055025
3.658577	-16.065000	29.047230
4.658577	-16.065000	32.640896
5.658577	-16.065000	54.683880
6.658577	-16.065000	61.188118
7.658577	-16.065000	78.152336
8.658577	-16.065000	73.700325
9.658577	-16.065000	61.739388
10.658577	-16.065000	74.802681
11.658577	-16.065000	74.668999
12.658577	-16.065000	66.662056
13.658577	-16.065000	71.730965
14.658577	-16.065000	59.781551
15.658577	-16.065000	66.357674
16.658577	-16.065000	69.069427
17.658577	-16.065000	29.054222
18.658577	-16.065000	21.465433
19.658577	-16.065000	53.424393
20.658577	-16.065000	65.452301
21.658577	-16.065000	49.683517
22.658577	-16.065000	65.392548
23.658577	-16.065000	57.669022
24.658577	-16.065000	65.401848
-39.341423	-15.065000	43.022606
-38.341423	-15.065000	63.111614
-37.341423	-15.065000	79.719986
-36.341423	-15.065000	74.030861
-35.341423	-15.065000	73.596672
-34.341423	-15.065000	78.723999
-33.341423	-15.065000	76.502251
-32.341423	-15.065000	76.219009
-31.341423	-15.065000	79.573563
-30.341423	-15.065000	82.237587
-29.341423	-15.065000	65.488914
-28.341423	-15.065000	63.242577
-27.341423	-15.065000	73.893692
-26.341423	-15.065000	63.752449
-25.341423	-15.065000	61.483570
-24.341423	-15.065000	75.255272
-23.341423	-15.065000	59.543941
-22.341423	-15.065000	56.969315
-21.341423	-15.065000	60.067528
-20.341423	-15.065000	74.830872
-19.341423	-15.065000	81.139671
-18.341423	-15.065000	72.180962
-17.341423	-15.065000	72.834892
-16.341423	-15.065000	72.280678
-15.341423	-15.065000	76.351364
-14.341423	-15.065000	72.283615
-13.341423	-15.065000	71.983383
-12.341423	-15.065000	64.366905
-11.341423	-15.065000	60.072479
-10.341423	-15.065000	59.884171
-9.341423	-15.065000	58.431622
-8.341423	-15.065000	53.643764
-7.341423	-15.065000	56.967823
-6.341423	-15.065000	57.941051
-5.341423	-15.065000	59.980141
-4.341423	-15.065000	55.787338
-3.341423	-15.065000	54.430470
-2.341423	-15.065000	45.015995
-1.341423	-15.065000	48.143456
-0.341423	-15.065000	61.667786
0.658577	-15.065000	58.572052
1.658577	-15.065000	57.369232
2.658577	-15.065000	54.122444
3.658577	-15.065000	37.668514
4.658577	-15.065000	60.161583
5.658577	-15.065000	65.760475
6.658577	-15.065000	76.657501
7.658577	-15.065000	74.282661
8.658577	-15.065000	74.361633
9.658577	-15.065000	77.236710
10.658577	-15.065000	77.096794
11.658577	-15.065000	68.745461
12.658577	-15.065000	71.289375
13.658577	-15.065000	70.560608
14.658577	-15.065000	59.924053
15.658577	-15.065000	91.930565
16.658577	-15.065000	62.674164
17.658577	-15.065000	51.900826
18.658577	-15.065000	41.977509
19.658577	-15.065000	60.492115
20.658577	-15.065000	64.029221
21.658577	-15.065000	56.897198
22.658577	-15.065000	62.432873
23.658577	-15.065000	63.992310
24.658577	-15.065000	66.538849
-39.341423	-14.065000	77.800575
-38.341423	-14.065000	93.768242
-37.341423	-14.065000	74.715996
-36.341423	-14.065000	77.275978
-35.341423	-14.065000	76.040161
-34.341423	-14.065000	77.451012
-33.341423	-14.065000	78.378586
-32.341423	-14.065000	80.862862
-31.341423	-14.065000	79.329636
-30.341423	-14.065000	80.686676
-29.341423	-14.065000	65.359818
-28.341423	-14.065000	62.768261
-27.341423	-14.065000	75.852692
-26.341423	-14.065000	65.115631
-25.341423	-14.065000	61.973576
-24.341423	-14.065000	59.651356
-23.341423	-14.065000	63.516331
-22.341423	-14.065000	61.222904
-21.341423	-14.065000	67.669609
-20.341423	-14.065000	65.437126
-19.341423	-14.065000	70.315018
-18.341423	-14.065000	69.050262
-17.341423	-14.065000	67.246201
-16.341423	-14.065000	70.481247
-15.341423	-14.065000	67.656242
-14.341423	-14.065000	69.883904
-13.341423	-14.065000	66.190887
-12.341423	-14.065000	70.315392
-11.341423	-14.065000	60.623726
-10.341423	-14.065000	56.150253
-9.341423	-14.065000	51.744019
-8.341423	-14.065000	48.895584
-7.341423	-14.065000	53.154793
-6.341423	-14.065000	55.488255
-5.341423	-14.065000	52.322891
-4.341423	-14.065000	40.998386
-3.341423	-14.065000	49.704876
-2.341423	-14.065000	52.070576
-1.341423	-14.065000	52.474892
-0.341423	-14.065000	55.225140
0.658577	-14.065000	55.843845
1.658577	-14.065000	57.757275
2.658577	-14.065000	47.910107
3.658577	-14.065000	42.729366
4.658577	-14.065000	49.578056
5.658577	-14.065000	56.650120
6.658577	-14.065000	72.349434
7.658577	-14.065000	76.790352
8.658577	-14.065000	61.300697
9.658577	-14.065000	76.238174
10.658577	-14.065000	69.389473
11.658577	-14.065000	75.926651
12.658577	-14.065000	69.575272
13.658577	-14.065000	63.107964
14.658577	-14.065000	39.790459
15.658577	-14.065000	94.711594
16.658577	-14.065000	60.708771
17.658577	-14.065000	82.063683
18.658577	-14.065000	59.333698
19.658577	-14.065000	55.406300
20.658577	-14.065000	46.434494
21.658577	-14.065000	56.249371
22.658577	-14.065000	54.973797
23.658577	-14.065000	50.593925
24.658577	-14.065000	46.954746
-39.341423	-13.065000	72.374619
-38.341423	-13.065000	76.524078
-37.341423	-13.065000	77.572533
-36.341423	-13.065000	78.937729
-35.341423	-13.065000	80.818367
-34.341423	-13.065000	77.798309
-33.341423	-13.065000	77.897697
-32.341423	-13.065000	77.604263
-31.341423	-13.065000	78.514473
-30.341423	-13.065000	80.564301
-29.341423	-13.065000	76.496696
-28.341423	-13.065000	77.021507
-27.341423	-13.065000	69.876961
-26.341423	-13.065000	65.001953
-25.341423	-13.065000	61.186699
-24.341423	-13.065000	61.456650
-23.341423	-13.065000	61.380219
-22.341423	-13.065000	75.246040
-21.341423	-13.065000	63.945267
-20.341423	-13.065000	49.306400
-19.341423	-13.065000	45.304462
-18.341423	-13.065000	33.720406
-17.341423	-13.065000	26.734566
-16.341423	-13.065000	29.494087
-15.341423	-13.065000	59.202816
-14.341423	-13.065000	58.762863
-13.341423	-13.065000	88.114777
-12.341423	-13.065000	55.782406
-11.341423	-13.065000	58.267284
-10.341423	-13.065000	55.398266
-9.341423	-13.065000	50.882786
-8.341423	-13.065000	46.922760
-7.341423	-13.065000	55.333488
-6.341423	-13.065000	58.663147
-5.341423	-13.065000	55.226555
-4.341423	-13.065000	44.411610
-3.341423	-13.065000	54.592632
-2.341423	-13.065000	59.854450
-1.341423	-13.065000	60.052689
-0.341423	-13.065000	60.603039
0.658577	-13.065000	60.211922
1.658577	-13.065000	60.219479
2.658577	-13.065000	46.838436
3.658577	-13.065000	35.617237
4.658577	-13.065000	47.989365
5.658577	-13.065000	41.146233
6.658577	-13.065000	56.162266
7.658577	-13.065000	71.348198
8.658577	-13.065000	73.578125
9.658577	-13.065000	69.169083
10.658577	-13.065000	67.944359
11.658577	-13.065000	39.373825
12.658577	-13.065000	54.939442
13.658577	-13.065000	39.698673
14.658577	-13.065000	59.586517
15.658577	-13.065000	86.211037
16.658577	-13.065000	67.557961
17.658577	-13.065000	67.103355
18.658577	-13.065000	49.857410
19.658577	-13.065000	53.388588
20.658577	-13.065000	58.252068
21.658577	-13.065000	47.048130
22.658577	-13.065000	57.247940
23.658577	-13.065000	53.546780
24.658577	-13.065000	34.739456
-39.341423	-12.065000	77.430733
-38.341423	-12.065000	74.695480
-37.341423	-12.065000	78.980797
-36.341423	-12.065000	77.710709
-35.341423	-12.065000	79.156288
-34.341423	-12.065000	76.978172
-33.341423	-12.065000	78.577347
-32.341423	-12.065000	75.983154
-31.341423	-12.065000	73.723953
-30.341423	-12.065000	78.265831
-29.341423	-12.065000	77.268799
-28.341423	-12.065000	73.819389
-27.341423	-12.065000	64.972389
-26.341423	-12.065000	76.148682
-25.341423	-12.065000	67.144226
-24.341423	-12.065000	75.456512
-23.341423	-12.065000	64.625992
-22.341423	-12.065000	77.981651
-21.341423	-12.065000	38.976513
-20.341423	-12.065000	24.260433
-19.341423	-12.065000	43.560406
-18.341423	-12.065000	30.088587
-17.341423	-12.065000	26.616053
-16.341423	-12.065000	34.725578
-15.341423	-12.065000	47.323742
-14.341423	-12.065000	69.855362
-13.341423	-12.065000	72.905334
-12.341423	-12.065000	54.799927
-11.341423	-12.065000	51.858379
-10.341423	-12.065000	51.640301
-9.341423	-12.065000	55.818077
-8.341423	-12.065000	52.250942
-7.341423	-12.065000	63.432255
-6.341423	-12.065000	60.131287
-5.341423	-12.065000	62.724720
-4.341423	-12.065000	49.345436
-3.341423	-12.065000	61.852306
-2.341423	-12.065000	60.728291
-1.341423	-12.065000	60.624893
-0.341423	-12.065000	59.250641
0.658577	-12.065000	60.164040
1.658577	-12.065000	54.330452
2.658577	-12.065000	41.267147
3.658577	-12.065000	34.251751
4.658577	-12.065000	33.040859
5.658577	-12.065000	41.832134
6.658577	-12.065000	41.488022
7.658577	-12.065000	65.138763
8.658577	-12.065000	60.048470
9.658577	-12.065000	74.921066
10.658577	-12.065000	54.450195
11.658577	-12.065000	86.896866
12.658577	-12.065000	48.029640
13.658577	-12.065000	19.841175
14.658577	-12.065000	60.432529
15.658577	-12.065000	61.151115
16.658577	-12.065000	77.196060
17.658577	-12.065000	55.622791
18.658577	-12.065000	53.174965
19.658577	-12.065000	41.791275
20.658577	-12.065000	30.196081
21.658577	-12.065000	37.503220
22.658577	-12.065000	40.527481
23.658577	-12.065000	56.006378
24.658577	-12.065000	44.851395
-39.341423	-11.065000	76.396385
-38.341423	-11.065000	75.486343
-37.341423	-11.065000	76.615417
-36.341423	-11.065000	79.506599
-35.341423	-11.065000	76.083916
-34.341423	-11.065000	78.557281
-33.341423	-11.065000	77.277519
-32.341423	-11.065000	79.389839
-31.341423	-11.065000	74.330292
-30.341423	-11.065000	75.092567
-29.341423	-11.065000	76.729919
-28.341423	-11.065000	76.305817
-27.341423	-11.065000	71.354881
-26.341423	-11.065000	68.315247
-25.341423	-11.065000	66.394722
-24.341423	-11.065000	63.224541
-23.341423	-11.065000	63.949982
-22.341423	-11.065000	62.542515
-21.341423	-11.065000	63.751003
-20.341423	-11.065000	50.147934
-19.341423	-11.065000	52.789150
-18.341423	-11.065000	46.921841
-17.341423	-11.065000	42.596523
-16.341423	-11.065000	45.912632
-15.341423	-11.065000	59.863258
-14.341423	-11.065000	67.790947
-13.341423	-11.065000	63.132385
-12.341423	-11.065000	55.268673
-11.341423	-11.065000	58.046703
-10.341423	-11.065000	57.870979
-9.341423	-11.065000	48.806465
-8.341423	-11.065000	37.457214
-7.341423	-11.065000	58.215824
-6.341423	-11.065000	59.380894
-5.341423	-11.065000	49.361607
-4.341423	-11.065000	50.133293
-3.341423	-11.065000	49.837517
-2.341423	-11.065000	51.884724
-1.341423	-11.065000	58.362225
-0.341423	-11.065000	58.507240
0.658577	-11.065000	62.944565
1.658577	-11.065000	57.575600
2.658577	-11.065000	55.660328
3.658577	-11.065000	24.622734
4.658577	-11.065000	27.590469
5.658577	-11.065000	42.890091
6.658577	-11.065000	23.548594
7.658577	-11.065000	54.288132
8.658577	-11.065000	59.464012
9.658577	-11.065000	81.934235
10.658577	-11.065000	277.526489
11.658577	-11.065000	61.922199
12.658577	-11.065000	73.348061
13.658577	-11.065000	58.852108
14.658577	-11.065000	61.098125
15.658577	-11.065000	64.124062
16.658577	-11.065000	61.391064
17.658577	-11.065000	37.207024
18.658577	-11.065000	26.379906
19.658577	-11.065000	25.174145
20.658577	-11.065000	22.456961
21.658577	-11.065000	19.212027
22.658577	-11.065000	24.086420
23.658577	-11.065000	45.532604
24.658577	-11.065000	55.020271
-39.341423	-10.065000	76.859657
-38.341423	-10.065000	75.809555
-37.341423	-10.065000	75.746483
-36.341423	-10.065000	77.870094
-35.341423	-10.065000	77.758545
-34.341423	-10.065000	79.392883
-33.341423	-10.065000	79.693100
-32.341423	-10.065000	76.944710
-31.341423	-10.065000	74.669853
-30.341423	-10.065000	76.845535
-29.341423	-10.065000	77.734695
-28.341423	-10.065000	77.221054
-27.341423	-10.065000	74.455650
-26.341423	-10.065000	69.234848
-25.341423	-10.065000	68.141777
-24.341423	-10.065000	61.995369
-23.341423	-10.065000	59.248352
-22.341423	-10.065000	71.583008
-21.341423	-10.065000	63.622673
-20.341423	-10.065000	63.114059
-19.341423	-10.065000	56.161743
-18.341423	-10.065000	45.354034
-17.341423	-10.065000	54.375900
-16.341423	-10.065000	56.050156
-15.341423	-10.065000	63.697845
-14.341423	-10.065000	67.023361
-13.341423	-10.065000	70.578743
-12.341423	-10.065000	73.967201
-11.341423	-10.065000	71.750618
-10.341423	-10.065000	72.113564
-9.341423	-10.065000	73.859322
-8.341423	-10.065000	31.936695
-7.341423	-10.065000	42.085747
-6.341423	-10.065000	30.097385
-5.341423	-10.065000	28.426476
-4.341423	-10.065000	38.465775
-3.341423	-10.065000	42.978954
-2.341423	-10.065000	50.477253
-1.341423	-10.065000	55.166557
-0.341423	-10.065000	60.790535
0.658577	-10.065000	63.494507
1.658577	-10.065000	60.360023
2.658577	-10.065000	40.965569
3.658577	-10.065000	18.711672
4.658577	-10.065000	34.982994
5.658577	-10.065000	52.782112
6.658577	-10.065000	68.942993
7.658577	-10.065000	69.610710
8.658577	-10.065000	90.379044
9.658577	-10.065000	28.108477
10.658577	-10.065000	6.311968
11.658577	-10.065000	2.588348
12.658577	-10.065000	60.591236
13.658577	-10.065000	35.838634
14.658577	-10.065000	26.320599
15.658577	-10.065000	58.300114
16.658577	-10.065000	51.074947
17.658577	-10.065000	25.401680
18.658577	-10.065000	21.087940
19.658577	-10.065000	28.418751
20.658577	-10.065000	26.357912
21.658577	-10.065000	22.154264
22.658577	-10.065000	20.072449
23.658577	-10.065000	33.164799
24.658577	-10.065000	53.123825
-39.341423	-9.065000	80.118629
-38.341423	-9.065000	78.357536
-37.341423	-9.065000	79.843826
-36.341423	-9.065000	78.742516
-35.341423	-9.065000	76.395119
-34.341423	-9.065000	77.404510
-33.341423	-9.065000	80.098221
-32.341423	-9.065000	78.061035
-31.341423	-9.065000	75.605766
-30.341423	-9.065000	77.032822
-29.341423	-9.065000	77.524841
-28.341423	-9.065000	77.264244
-27.341423	-9.065000	73.579933
-26.341423	-9.065000	64.511284
-25.341423	-9.065000	63.570538
-24.341423	-9.065000	67.578712
-23.341423	-9.065000	61.127449
-22.341423	-9.065000	61.949093
-21.341423	-9.065000	50.706093
-20.341423	-9.065000	45.354195
-19.341423	-9.065000	51.655502
-18.341423	-9.065000	49.395565
-17.341423	-9.065000	57.473534
-16.341423	-9.065000	63.315708
-15.341423	-9.065000	69.385902
-14.341423	-9.065000	74.125992
-13.341423	-9.065000	77.481041
-12.341423	-9.065000	74.651550
-11.341423	-9.065000	70.949333
-10.341423	-9.065000	68.912590
-9.341423	-9.065000	73.765038
-8.341423	-9.065000	67.614853
-7.341423	-9.065000	36.815712
-6.341423	-9.065000	25.905008
-5.341423	-9.065000	23.248926
-4.341423	-9.065000	35.174431
-3.341423	-9.065000	42.825470
-2.341423	-9.065000	28.327869
-1.341423	-9.065000	52.433365
-0.341423	-9.065000	61.299282
0.658577	-9.065000	64.476547
1.658577	-9.065000	59.562252
2.658577	-9.065000	24.997179
3.658577	-9.065000	29.978962
4.658577	-9.065000	36.175529
5.658577	-9.065000	74.168373
6.658577	-9.065000	70.292702
7.658577	-9.065000	74.880104
8.658577	-9.065000	68.932709
9.658577	-9.065000	1.386892
10.658577	-9.065000	334.336029
11.658577	-9.065000	76.763710
12.658577	-9.065000	59.853813
13.658577	-9.065000	35.298222
14.658577	-9.065000	35.776501
15.658577	-9.065000	63.255863
16.658577	-9.065000	38.402706
17.658577	-9.065000	44.937458
18.658577	-9.065000	17.705574
19.658577	-9.065000	23.044861
20.658577	-9.065000	16.518745
21.658577	-9.065000	17.345078
22.658577	-9.065000	26.672827
23.658577	-9.065000	30.184063
24.658577	-9.065000	62.442131
-39.341423	-8.065000	78.334892
-38.341423	-8.065000	80.289276
-37.341423	-8.065000	79.296356
-36.341423	-8.065000	80.243286
-35.341423	-8.065000	78.843353
-34.341423	-8.065000	76.942848
-33.341423	-8.065000	79.149460
-32.341423	-8.065000	76.892242
-31.341423	-8.065000	82.611794
-30.341423	-8.065000	78.927780
-29.341423	-8.065000	78.516838
-28.341423	-8.065000	71.851570
-27.341423	-8.065000	72.332306
-26.341423	-8.065000	67.645607
-25.341423	-8.065000	64.971497
-24.341423	-8.065000	47.803062
-23.341423	-8.065000	62.247269
-22.341423	-8.065000	47.632629
-21.341423	-8.065000	21.894249
-20.341423	-8.065000	14.767661
-19.341423	-8.065000	55.833111
-18.341423	-8.065000	58.862907
-17.341423	-8.065000	64.074364
-16.341423	-8.065000	70.950081
-15.341423	-8.065000	60.200336
-14.341423	-8.065000	66.042320
-13.341423	-8.065000	74.278999
-12.341423	-8.065000	67.967476
-11.341423	-8.065000	77.690247
-10.341423	-8.065000	76.410507
-9.341423	-8.065000	71.370750
-8.341423	-8.065000	73.541397
-7.341423	-8.065000	17.945576
-6.341423	-8.065000	21.828793
-5.341423	-8.065000	26.447554
-4.341423	-8.065000	26.955936
-3.341423	-8.065000	42.350555
-2.341423	-8.065000	46.670864
-1.341423	-8.065000	50.828365
-0.341423	-8.065000	55.358944
0.658577	-8.065000	61.310471
1.658577	-8.065000	64.604492
2.658577	-8.065000	60.993553
3.658577	-8.065000	55.412426
4.658577	-8.065000	56.422909
5.658577	-8.065000	69.814781
6.658577	-8.065000	73.969559
7.658577	-8.065000	75.256180
8.658577	-8.065000	71.694901
9.658577	-8.065000	576.885193
10.658577	-8.065000	104.033676
11.658577	-8.065000	93.536980
12.658577	-8.065000	54.064251
13.658577	-8.065000	38.371449
14.658577	-8.065000	45.221222
15.658577	-8.065000	63.845165
16.658577	-8.065000	49.650471
17.658577	-8.065000	43.913467
18.658577	-8.065000	20.134354
19.658577	-8.065000	16.867971
20.658577	-8.065000	31.478407
21.658577	-8.065000	16.678001
22.658577	-8.065000	16.443573
23.658577	-8.065000	39.881794
24.658577	-8.065000	66.656937
-39.341423	-7.065000	78.275284
-38.341423	-7.065000	81.358803
-37.341423	-7.065000	81.179703
-36.341423	-7.065000	76.625809
-35.341423	-7.065000	77.169052
-34.341423	-7.065000	77.536652
-33.341423	-7.065000	77.103905
-32.341423	-7.065000	80.631523
-31.341423	-7.065000	72.469307
-30.341423	-7.065000	73.499207
-29.341423	-7.065000	74.157448
-28.341423	-7.065000	73.500969
-27.341423	-7.065000	65.681061
-26.341423	-7.065000	70.337082
-25.341423	-7.065000	69.943802
-24.341423	-7.065000	52.513313
-23.341423	-7.065000	42.583588
-22.341423	-7.065000	51.585400
-21.341423	-7.065000	17.857462
-20.341423	-7.065000	33.835358
-19.341423	-7.065000	66.038002
-18.341423	-7.065000	68.708405
-17.341423	-7.065000	70.207352
-16.341423	-7.065000	74.349297
-15.341423	-7.065000	67.769585
-14.341423	-7.065000	79.553749
-13.341423	-7.065000	82.650635
-12.341423	-7.065000	68.702644
-11.341423	-7.065000	80.010429
-10.341423	-7.065000	77.735420
-9.341423	-7.065000	72.211311
-8.341423	-7.065000	68.695457
-7.341423	-7.065000	76.941307
-6.341423	-7.065000	42.795601
-5.341423	-7.065000	52.107964
-4.341423	-7.065000	47.165817
-3.341423	-7.065000	65.155670
-2.341423	-7.065000	71.164551
-1.341423	-7.065000	50.245064
-0.341423	-7.065000	67.732147
0.658577	-7.065000	73.077995
1.658577	-7.065000	108.063301
2.658577	-7.065000	58.700867
3.658577	-7.065000	53.909592
4.658577	-7.065000	62.781719
5.658577	-7.065000	68.800537
6.658577	-7.065000	74.046791
7.658577	-7.065000	78.697563
8.658577	-7.065000	124.940468
9.658577	-7.065000	58.204765
10.658577	-7.065000	62.799786
11.658577	-7.065000	66.755257
12.658577	-7.065000	80.242203
13.658577	-7.065000	68.400208
14.658577	-7.065000	67.167679
15.658577	-7.065000	64.078537
16.658577	-7.065000	46.931000
17.658577	-7.065000	35.415764
18.658577	-7.065000	36.567234
19.658577	-7.065000	34.941040
20.658577	-7.065000	46.192226
21.658577	-7.065000	42.743496
22.658577	-7.065000	41.629986
23.658577	-7.065000	59.082279
24.658577	-7.065000	64.521851
-39.341423	-6.065000	76.172264
-38.341423	-6.065000	78.543571
-37.341423	-6.065000	75.306503
-36.341423	-6.065000	76.487000
-35.341423	-6.065000	77.276077
-34.341423	-6.065000	78.615990
-33.341423	-6.065000	79.577103
-32.341423	-6.065000	76.945511
-31.341423	-6.065000	75.360718
-30.341423	-6.065000	76.201019
-29.341423	-6.065000	74.687981
-28.341423	-6.065000	72.454208
-27.341423	-6.065000	70.699646
-26.341423	-6.065000	65.699348
-25.341423	-6.065000	70.188705
-24.341423	-6.065000	67.590927
-23.341423	-6.065000	49.959812
-22.341423	-6.065000	63.157692
-21.341423	-6.065000	65.325409
-20.341423	-6.065000	60.009960
-19.341423	-6.065000	51.424854
-18.341423	-6.065000	98.197495
-17.341423	-6.065000	71.861229
-16.341423	-6.065000	70.959686
-15.341423	-6.065000	72.494377
-14.341423	-6.065000	79.528137
-13.341423	-6.065000	82.422890
-12.341423	-6.065000	79.341270
-11.341423	-6.065000	73.592430
-10.341423	-6.065000	77.084595
-9.341423	-6.065000	72.400200
-8.341423	-6.065000	74.364189
-7.341423	-6.065000	72.616165
-6.341423	-6.065000	77.170883
-5.341423	-6.065000	76.893051
-4.341423	-6.065000	67.780930
-3.341423	-6.065000	77.198067
-2.341423	-6.065000	56.052654
-1.341423	-6.065000	73.193108
-0.341423	-6.065000	88.789780
0.658577	-6.065000	65.800705
1.658577	-6.065000	69.163208
2.658577	-6.065000	69.426872
3.658577	-6.065000	63.556015
4.658577	-6.065000	62.260242
5.658577	-6.065000	63.768425
6.658577	-6.065000	57.482025
7.658577	-6.065000	61.211300
8.658577	-6.065000	67.747932
9.658577	-6.065000	59.777977
10.658577	-6.065000	40.089413
11.658577	-6.065000	62.448952
12.658577	-6.065000	70.696480
13.658577	-6.065000	59.671329
14.658577	-6.065000	58.674065
15.658577	-6.065000	60.080009
16.658577	-6.065000	61.007721
17.658577	-6.065000	30.512060
18.658577	-6.065000	27.741959
19.658577	-6.065000	30.602669
20.658577	-6.065000	22.302996
21.658577	-6.065000	41.848873
22.658577	-6.065000	39.438740
23.658577	-6.065000	49.526833
24.658577	-6.065000	50.174717
-39.341423	-5.065000	83.648338
-38.341423	-5.065000	73.193398
-37.341423	-5.065000	74.182671
-36.341423	-5.065000	76.680489
-35.341423	-5.065000	76.422050
-34.341423	-5.065000	71.074013
-33.341423	-5.065000	72.566368
-32.341423	-5.065000	74.240540
-31.341423	-5.065000	72.038368
-30.341423	-5.065000	71.675949
-29.341423	-5.065000	70.496269
-28.341423	-5.065000	66.231216
-27.341423	-5.065000	63.422054
-26.341423	-5.065000	65.404114
-25.341423	-5.065000	60.950314
-24.341423	-5.065000	73.058296
-23.341423	-5.065000	70.522308
-22.341423	-5.065000	63.152557
-21.341423	-5.065000	65.384789
-20.341423	-5.065000	75.917160
-19.341423	-5.065000	51.968239
-18.341423	-5.065000	39.194290
-17.341423	-5.065000	78.701828
-16.341423	-5.065000	71.752083
-15.341423	-5.065000	76.279335
-14.341423	-5.065000	74.324776
-13.341423	-5.065000	76.782661
-12.341423	-5.065000	73.650902
-11.341423	-5.065000	73.097176
-10.341423	-5.065000	76.439949
-9.341423	-5.065000	72.708916
-8.341423	-5.065000	73.816444
-7.341423	-5.065000	75.829254
-6.341423	-5.065000	72.856110
-5.341423	-5.065000	69.381340
-4.341423	-5.065000	70.656303
-3.341423	-5.065000	81.027596
-2.341423	-5.065000	95.855042
-1.341423	-5.065000	65.228691
-0.341423	-5.065000	69.674904
0.658577	-5.065000	59.877987
1.658577	-5.065000	63.503124
2.658577	-5.065000	76.002335
3.658577	-5.065000	69.717964
4.658577	-5.065000	62.823166
5.658577	-5.065000	61.984436
6.658577	-5.065000	51.384884
7.658577	-5.065000	57.293499
8.658577	-5.065000	77.532066
9.658577	-5.065000	61.770741
10.658577	-5.065000	60.016552
11.658577	-5.065000	59.323376
12.658577	-5.065000	66.427025
13.658577	-5.065000	67.674690
14.658577	-5.065000	65.609245
15.658577	-5.065000	59.150631
16.658577	-5.065000	62.222977
17.658577	-5.065000	59.927555
18.658577	-5.065000	35.276535
19.658577	-5.065000	32.550468
20.658577	-5.065000	29.781897
21.658577	-5.065000	22.123159
22.658577	-5.065000	52.851849
23.658577	-5.065000	44.012138
24.658577	-5.065000	43.141781
-39.341423	-4.065000	67.917023
-38.341423	-4.065000	71.442329
-37.341423	-4.065000	58.721344
-36.341423	-4.065000	56.482143
-35.341423	-4.065000	64.750473
-34.341423	-4.065000	73.160492
-33.341423	-4.065000	70.979637
-32.341423	-4.065000	70.398155
-31.341423	-4.065000	69.598869
-30.341423	-4.065000	69.333801
-29.341423	-4.065000	71.738983
-28.341423	-4.065000	70.249260
-27.341423	-4.065000	63.893360
-26.341423	-4.065000	64.252991
-25.341423	-4.065000	64.223488
-24.341423	-4.065000	68.547157
-23.341423	-4.065000	70.993774
-22.341423	-4.065000	70.946930
-21.341423	-4.065000	63.625706
-20.341423	-4.065000	62.298046
-19.341423	-4.065000	68.904221
-18.341423	-4.065000	70.697273
-17.341423	-4.065000	82.438065
-16.341423	-4.065000	71.516388
-15.341423	-4.065000	71.343567
-14.341423	-4.065000	77.728142
-13.341423	-4.065000	72.531166
-12.341423	-4.065000	75.098595
-11.341423	-4.065000	61.784779
-10.341423	-4.065000	68.715866
-9.341423	-4.065000	64.652374
-8.341423	-4.065000	75.794800
-7.341423	-4.065000	78.588364
-6.341423	-4.065000	63.507290
-5.341423	-4.065000	68.897766
-4.341423	-4.065000	61.908138
-3.341423	-4.065000	27.047243
-2.341423	-4.065000	110.640709
-1.341423	-4.065000	78.417976
-0.341423	-4.065000	76.735298
0.658577	-4.065000	60.449821
1.658577	-4.065000	53.517864
2.658577	-4.065000	84.550072
3.658577	-4.065000	89.299530
4.658577	-4.065000	67.984375
5.658577	-4.065000	61.580128
6.658577	-4.065000	64.566307
7.658577	-4.065000	68.244736
8.658577	-4.065000	73.253181
9.658577	-4.065000	68.591713
10.658577	-4.065000	64.291992
11.658577	-4.065000	51.353348
12.658577	-4.065000	66.229874
13.658577	-4.065000	68.988525
14.658577	-4.065000	72.705513
15.658577	-4.065000	73.615837
16.658577	-4.065000	68.319771
17.658577	-4.065000	57.305164
18.658577	-4.065000	58.116402
19.658577	-4.065000	51.426811
20.658577	-4.065000	53.673206
21.658577	-4.065000	55.181316
22.658577	-4.065000	47.508877
23.658577	-4.065000	57.112312
24.658577	-4.065000	44.191818
-39.341423	-3.065000	225.576157
-38.341423	-3.065000	64.527237
-37.341423	-3.065000	48.675991
-36.341423	-3.065000	52.287815
-35.341423	-3.065000	59.677982
-34.341423	-3.065000	73.964264
-33.341423	-3.065000	65.383293
-32.341423	-3.065000	69.138824
-31.341423	-3.065000	76.187691
-30.341423	-3.065000	67.955299
-29.341423	-3.065000	69.669914
-28.341423	-3.065000	81.880295
-27.341423	-3.065000	63.540249
-26.341423	-3.065000	65.995659
-25.341423	-3.065000	61.038536
-24.341423	-3.065000	75.129799
-23.341423	-3.065000	73.448456
-22.341423	-3.065000	76.782196
-21.341423	-3.065000	66.617882
-20.341423	-3.065000	76.080025
-19.341423	-3.065000	60.410599
-18.341423	-3.065000	56.701832
-17.341423	-3.065000	63.340927
-16.341423	-3.065000	80.477028
-15.341423	-3.065000	72.379951
-14.341423	-3.065000	73.414398
-13.341423	-3.065000	75.830070
-12.341423	-3.065000	69.834503
-11.341423	-3.065000	58.578968
-10.341423	-3.065000	56.881996
-9.341423	-3.065000	59.734940
-8.341423	-3.065000	58.032093
-7.341423	-3.065000	51.700291
-6.341423	-3.065000	60.535610
-5.341423	-3.065000	60.778275
-4.341423	-3.065000	28.246977
-3.341423	-3.065000	61.964947
-2.341423	-3.065000	75.119736
-1.341423	-3.065000	76.935204
-0.341423	-3.065000	76.881302
0.658577	-3.065000	67.939728
1.658577	-3.065000	61.023663
2.658577	-3.065000	72.805260
3.658577	-3.065000	65.923531
4.658577	-3.065000	70.248940
5.658577	-3.065000	36.245251
6.658577	-3.065000	56.577633
7.658577	-3.065000	64.369400
8.658577	-3.065000	67.190102
9.658577	-3.065000	61.229557
10.658577	-3.065000	63.089684
11.658577	-3.065000	64.324814
12.658577	-3.065000	70.272598
13.658577	-3.065000	73.459511
14.658577	-3.065000	68.375198
15.658577	-3.065000	67.372719
16.658577	-3.065000	58.009499
17.658577	-3.065000	59.267780
18.658577	-3.065000	58.173885
19.658577	-3.065000	29.955748
20.658577	-3.065000	39.909142
21.658577	-3.065000	49.092705
22.658577	-3.065000	46.418171
23.658577	-3.065000	33.122986
24.658577	-3.065000	53.525234
-39.341423	-2.065000	77.319351
-38.341423	-2.065000	70.584297
-37.341423	-2.065000	61.366802
-36.341423	-2.065000	60.142403
-35.341423	-2.065000	63.118038
-34.341423	-2.065000	60.244209
-33.341423	-2.065000	68.584328
-32.341423	-2.065000	64.209976
-31.341423	-2.065000	78.020935
-30.341423	-2.065000	75.672638
-29.341423	-2.065000	81.785156
-28.341423	-2.065000	95.407272
-27.341423	-2.065000	71.707260
-26.341423	-2.065000	72.149429
-25.341423	-2.065000	72.764282
-24.341423	-2.065000	78.390518
-23.341423	-2.065000	70.613396
-22.341423	-2.065000	68.926399
-21.341423	-2.065000	65.161491
-20.341423	-2.065000	65.258354
-19.341423	-2.065000	58.341827
-18.341423	-2.065000	74.810860
-17.341423	-2.065000	56.110764
-16.341423	-2.065000	49.118587
-15.341423	-2.065000	69.330475
-14.341423	-2.065000	72.989403
-13.341423	-2.065000	76.609146
-12.341423	-2.065000	67.866440
-11.341423	-2.065000	63.602222
-10.341423	-2.065000	68.043472
-9.341423	-2.065000	64.244713
-8.341423	-2.065000	56.031624
-7.341423	-2.065000	56.245029
-6.341423	-2.065000	57.728664
-5.341423	-2.065000	59.107605
-4.341423	-2.065000	50.248203
-3.341423	-2.065000	36.889889
-2.341423	-2.065000	75.323624
-1.341423	-2.065000	76.311935
-0.341423	-2.065000	74.468735
0.658577	-2.065000	75.866982
1.658577	-2.065000	73.894318
2.658577	-2.065000	74.489677
3.658577	-2.065000	68.455711
4.658577	-2.065000	64.890182
5.658577	-2.065000	58.757484
6.658577	-2.065000	65.453491
7.658577	-2.065000	62.446789
8.658577	-2.065000	58.364723
9.658577	-2.065000	58.296810
10.658577	-2.065000	51.088379
11.658577	-2.065000	49.768585
12.658577	-2.065000	62.087475
13.658577	-2.065000	72.840752
14.658577	-2.065000	70.176598
15.658577	-2.065000	66.229286
16.658577	-2.065000	57.153160
17.658577	-2.065000	57.206661
18.658577	-2.065000	63.958443
19.658577	-2.065000	55.497433
20.658577	-2.065000	44.395943
21.658577	-2.065000	89.983284
22.658577	-2.065000	49.901524
23.658577	-2.065000	31.550041
24.658577	-2.065000	29.441690
-39.341423	-1.065000	24.630777
-38.341423	-1.065000	44.396057
-37.341423	-1.065000	62.733662
-36.341423	-1.065000	50.031132
-35.341423	-1.065000	49.376778
-34.341423	-1.065000	37.412846
-33.341423	-1.065000	59.356583
-32.341423	-1.065000	53.206066
-31.341423	-1.065000	54.246323
-30.341423	-1.065000	50.944969
-29.341423	-1.065000	62.612766
-28.341423	-1.065000	29.530216
-27.341423	-1.065000	56.271473
-26.341423	-1.065000	60.385929
-25.341423	-1.065000	72.190681
-24.341423	-1.065000	68.059151
-23.341423	-1.065000	73.972778
-22.341423	-1.065000	68.408508
-21.341423	-1.065000	68.958847
-20.341423	-1.065000	65.298363
-19.341423	-1.065000	89.916893
-18.341423	-1.065000	62.232334
-17.341423	-1.065000	42.059196
-16.341423	-1.065000	36.392456
-15.341423	-1.065000	63.709194
-14.341423	-1.065000	72.264839
-13.341423	-1.065000	79.033798
-12.341423	-1.065000	78.045753
-11.341423	-1.065000	66.163391
-10.341423	-1.065000	66.768456
-9.341423	-1.065000	55.530396
-8.341423	-1.065000	60.827061
-7.341423	-1.065000	51.862381
-6.341423	-1.065000	59.299381
-5.341423	-1.065000	75.456879
-4.341423	-1.065000	56.564049
-3.341423	-1.065000	27.730536
-2.341423	-1.065000	77.848961
-1.341423	-1.065000	69.052223
-0.341423	-1.065000	74.725182
0.658577	-1.065000	74.763588
1.658577	-1.065000	69.375893
2.658577	-1.065000	67.992477
3.658577	-1.065000	54.242432
4.658577	-1.065000	33.812851
5.658577	-1.065000	56.907776
6.658577	-1.065000	65.918045
7.658577	-1.065000	67.171165
8.658577	-1.065000	68.134598
9.658577	-1.065000	57.220543
10.658577	-1.065000	56.908367
11.658577	-1.065000	68.114311
12.658577	-1.065000	65.802811
13.658577	-1.065000	76.888008
14.658577	-1.065000	72.707642
15.658577	-1.065000	65.061066
16.658577	-1.065000	59.166935
17.658577	-1.065000	59.404789
18.658577	-1.065000	63.337593
19.658577	-1.065000	54.713467
20.658577	-1.065000	75.956528
21.658577	-1.065000	76.036339
22.658577	-1.065000	50.122505
23.658577	-1.065000	33.555408
24.658577	-1.065000	35.171791
-39.341423	-0.065000	13.968787
-38.341423	-0.065000	18.577240
-37.341423	-0.065000	20.156496
-36.341423	-0.065000	18.409241
-35.341423	-0.065000	19.284731
-34.341423	-0.065000	45.572182
-33.341423	-0.065000	48.949337
-32.341423	-0.065000	36.395428
-31.341423	-0.065000	34.507648
-30.341423	-0.065000	20.445091
-29.341423	-0.065000	43.958950
-28.341423	-0.065000	2.408518
-27.341423	-0.065000	569.659668
-26.341423	-0.065000	63.576118
-25.341423	-0.065000	74.127708
-24.341423	-0.065000	78.105614
-23.341423	-0.065000	69.597130
-22.341423	-0.065000	70.333008
-21.341423	-0.065000	73.680489
-20.341423	-0.065000	66.052895
-19.341423	-0.065000	68.394402
-18.341423	-0.065000	62.212555
-17.341423	-0.065000	32.263859
-16.341423	-0.065000	50.897678
-15.341423	-0.065000	65.734856
-14.341423	-0.065000	75.549988
-13.341423	-0.065000	78.529167
-12.341423	-0.065000	76.165825
-11.341423	-0.065000	73.310844
-10.341423	-0.065000	63.938320
-9.341423	-0.065000	59.073189
-8.341423	-0.065000	59.006828
-7.341423	-0.065000	58.095749
-6.341423	-0.065000	61.868748
-5.341423	-0.065000	75.569527
-4.341423	-0.065000	63.118244
-3.341423	-0.065000	61.904381
-2.341423	-0.065000	74.797539
-1.341423	-0.065000	73.260803
-0.341423	-0.065000	74.055344
0.658577	-0.065000	71.097679
1.658577	-0.065000	72.186745
2.658577	-0.065000	54.504139
3.658577	-0.065000	34.254944
4.658577	-0.065000	33.801750
5.658577	-0.065000	58.998341
6.658577	-0.065000	73.398827
7.658577	-0.065000	71.829041
8.658577	-0.065000	72.434830
9.658577	-0.065000	67.988068
10.658577	-0.065000	68.933289
11.658577	-0.065000	69.990509
12.658577	-0.065000	67.448982
13.658577	-0.065000	63.921394
14.658577	-0.065000	62.141926
15.658577	-0.065000	74.372795
16.658577	-0.065000	69.274521
17.658577	-0.065000	60.630978
18.658577	-0.065000	76.160309
19.658577	-0.065000	77.726830
20.658577	-0.065000	75.324242
21.658577	-0.065000	82.557640
22.658577	-0.065000	67.570480
23.658577	-0.065000	30.879713
24.658577	-0.065000	43.615646
-39.341423	0.935000	13.562260
-38.341423	0.935000	16.169653
-37.341423	0.935000	16.597010
-36.341423	0.935000	15.167328
-35.341423	0.935000	39.799648
-34.341423	0.935000	44.776623
-33.341423	0.935000	53.898994
-32.341423	0.935000	51.757839
-31.341423	0.935000	54.741653
-30.341423	0.935000	46.530315
-29.341423	0.935000	54.485588
-28.341423	0.935000	68.613838
-27.341423	0.935000	80.749718
-26.341423	0.935000	74.485298
-25.341423	0.935000	71.667625
-24.341423	0.935000	77.645897
-23.341423	0.935000	64.857521
-22.341423	0.935000	71.524864
-21.341423	0.935000	75.141083
-20.341423	0.935000	73.089622
-19.341423	0.935000	62.399487
-18.341423	0.935000	50.921902
-17.341423	0.935000	51.672527
-16.341423	0.935000	41.034439
-15.341423	0.935000	71.938622
-14.341423	0.935000	76.241035
-13.341423	0.935000	77.894691
-12.341423	0.935000	73.373871
-11.341423	0.935000	74.089264
-10.341423	0.935000	74.717758
-9.341423	0.935000	62.958031
-8.341423	0.935000	57.655903
-7.341423	0.935000	57.905506
-6.341423	0.935000	67.463097
-5.341423	0.935000	70.562149
-4.341423	0.935000	70.120262
-3.341423	0.935000	72.848915
-2.341423	0.935000	63.503468
-1.341423	0.935000	75.941307
-0.341423	0.935000	73.780060
0.658577	0.935000	74.071213
1.658577	0.935000	67.528534
2.658577	0.935000	39.767414
3.658577	0.935000	41.059586
4.658577	0.935000	55.598061
5.658577	0.935000	68.341492
6.658577	0.935000	64.936386
7.658577	0.935000	60.729053
8.658577	0.935000	65.944145
9.658577	0.935000	70.021858
10.658577	0.935000	67.438126
11.658577	0.935000	64.673576
12.658577	0.935000	66.790779
13.658577	0.935000	64.899445
14.658577	0.935000	69.554596
15.658577	0.935000	68.361267
16.658577	0.935000	66.177872
17.658577	0.935000	65.777466
18.658577	0.935000	73.658356
19.658577	0.935000	81.985298
20.658577	0.935000	76.140099
21.658577	0.935000	77.808670
22.658577	0.935000	75.308868
23.658577	0.935000	60.103573
24.658577	0.935000	45.059925
-39.341423	1.935000	21.480267
-38.341423	1.935000	19.925043
-37.341423	1.935000	33.057419
-36.341423	1.935000	58.066822
-35.341423	1.935000	65.023582
-34.341423	1.935000	49.637199
-33.341423	1.935000	63.167732
-32.341423	1.935000	68.215897
-31.341423	1.935000	59.490791
-30.341423	1.935000	61.136570
-29.341423	1.935000	66.899071
-28.341423	1.935000	78.183113
-27.341423	1.935000	69.643532
-26.341423	1.935000	74.760330
-25.341423	1.935000	64.583534
-24.341423	1.935000	45.298107
-23.341423	1.935000	59.891068
-22.341423	1.935000	78.308075
-21.341423	1.935000	71.848152
-20.341423	1.935000	72.227776
-19.341423	1.935000	65.866165
-18.341423	1.935000	67.532898
-17.341423	1.935000	63.883366
-16.341423	1.935000	61.781509
-15.341423	1.935000	73.699715
-14.341423	1.935000	69.330147
-13.341423	1.935000	73.023941
-12.341423	1.935000	72.895424
-11.341423	1.935000	79.004349
-10.341423	1.935000	77.244949
-9.341423	1.935000	74.358749
-8.341423	1.935000	75.604012
-7.341423	1.935000	66.434891
-6.341423	1.935000	66.453438
-5.341423	1.935000	73.031990
-4.341423	1.935000	71.599724
-3.341423	1.935000	72.203171
-2.341423	1.935000	76.064156
-1.341423	1.935000	73.824715
-0.341423	1.935000	74.449112
0.658577	1.935000	67.227806
1.658577	1.935000	56.146133
2.658577	1.935000	46.979664
3.658577	1.935000	48.107468
4.658577	1.935000	51.142967
5.658577	1.935000	67.908447
6.658577	1.935000	68.262047
7.658577	1.935000	70.141266
8.658577	1.935000	73.329117
9.658577	1.935000	71.933624
10.658577	1.935000	74.093864
11.658577	1.935000	73.493042
12.658577	1.935000	72.156944
13.658577	1.935000	64.579002
14.658577	1.935000	64.718140
15.658577	1.935000	64.569893
16.658577	1.935000	65.880249
17.658577	1.935000	63.365932
18.658577	1.935000	67.317444
19.658577	1.935000	66.100555
20.658577	1.935000	77.067177
21.658577	1.935000	76.091995
22.658577	1.935000	70.226753
23.658577	1.935000	68.076752
24.658577	1.935000	71.629471
-39.341423	2.935000	27.961334
-38.341423	2.935000	56.398182
-37.341423	2.935000	65.126076
-36.341423	2.935000	64.506203
-35.341423	2.935000	60.535156
-34.341423	2.935000	38.753780
-33.341423	2.935000	51.922375
-32.341423	2.935000	76.526459
-31.341423	2.935000	60.530941
-30.341423	2.935000	64.501854
-29.341423	2.935000	66.630989
-28.341423	2.935000	70.776756
-27.341423	2.935000	68.266708
-26.341423	2.935000	70.728317
-25.341423	2.935000	69.683136
-24.341423	2.935000	54.053452
-23.341423	2.935000	52.895485
-22.341423	2.935000	59.214577
-21.341423	2.935000	76.734863
-20.341423	2.935000	69.994247
-19.341423	2.935000	68.530975
-18.341423	2.935000	89.802170
-17.341423	2.935000	96.497253
-16.341423	2.935000	47.198189
-15.341423	2.935000	56.972996
-14.341423	2.935000	68.323540
-13.341423	2.935000	72.178596
-12.341423	2.935000	69.062584
-11.341423	2.935000	66.947945
-10.341423	2.935000	70.181236
-9.341423	2.935000	71.809448
-8.341423	2.935000	62.176220
-7.341423	2.935000	63.860226
-6.341423	2.935000	66.189018
-5.341423	2.935000	73.740120
-4.341423	2.935000	71.923409
-3.341423	2.935000	72.054535
-2.341423	2.935000	67.899734
-1.341423	2.935000	73.866043
-0.341423	2.935000	73.520988
0.658577	2.935000	77.632584
1.658577	2.935000	60.696751
2.658577	2.935000	51.487782
3.658577	2.935000	52.823498
4.658577	2.935000	56.266724
5.658577	2.935000	60.724125
6.658577	2.935000	73.986740
7.658577	2.935000	82.005852
8.658577	2.935000	72.297951
9.658577	2.935000	74.537682
10.658577	2.935000	75.458488
11.658577	2.935000	64.831085
12.658577	2.935000	65.387726
13.658577	2.935000	62.964134
14.658577	2.935000	67.866837
15.658577	2.935000	61.457890
16.658577	2.935000	61.014404
17.658577	2.935000	73.284241
18.658577	2.935000	70.890999
19.658577	2.935000	101.757637
20.658577	2.935000	74.518456
21.658577	2.935000	78.427353
22.658577	2.935000	76.241264
23.658577	2.935000	76.039711
24.658577	2.935000	69.827866
-39.341423	3.935000	63.909069
-38.341423	3.935000	65.132790
-37.341423	3.935000	64.218475
-36.341423	3.935000	51.385410
-35.341423	3.935000	56.797920
-34.341423	3.935000	54.229572
-33.341423	3.935000	38.875504
-32.341423	3.935000	62.011906
-31.341423	3.935000	62.956505
-30.341423	3.935000	65.170273
-29.341423	3.935000	65.278229
-28.341423	3.935000	64.244370
-27.341423	3.935000	64.814232
-26.341423	3.935000	62.981258
-25.341423	3.935000	68.588036
-24.341423	3.935000	73.388649
-23.341423	3.935000	56.025814
-22.341423	3.935000	56.586533
-21.341423	3.935000	73.711296
-20.341423	3.935000	70.151588
-19.341423	3.935000	77.953758
-18.341423	3.935000	76.142227
-17.341423	3.935000	76.061653
-16.341423	3.935000	85.426987
-15.341423	3.935000	73.448402
-14.341423	3.935000	75.467628
-13.341423	3.935000	70.433357
-12.341423	3.935000	60.921185
-11.341423	3.935000	65.850258
-10.341423	3.935000	63.929333
-9.341423	3.935000	55.132130
-8.341423	3.935000	38.448681
-7.341423	3.935000	47.819332
-6.341423	3.935000	68.247734
-5.341423	3.935000	67.326721
-4.341423	3.935000	72.954720
-3.341423	3.935000	75.110657
-2.341423	3.935000	77.220650
-1.341423	3.935000	78.765091
-0.341423	3.935000	76.430771
0.658577	3.935000	75.085144
1.658577	3.935000	69.089630
2.658577	3.935000	62.713047
3.658577	3.935000	58.715130
4.658577	3.935000	59.835770
5.658577	3.935000	61.166889
6.658577	3.935000	66.507019
7.658577	3.935000	72.356590
8.658577	3.935000	71.665215
9.658577	3.935000	68.968475
10.658577	3.935000	69.194557
11.658577	3.935000	59.556644
12.658577	3.935000	57.773998
13.658577	3.935000	63.658577
14.658577	3.935000	67.068260
15.658577	3.935000	59.717690
16.658577	3.935000	60.470444
17.658577	3.935000	77.025330
18.658577	3.935000	72.607628
19.658577	3.935000	76.163795
20.658577	3.935000	70.383316
21.658577	3.935000	68.651810
22.658577	3.935000	72.932747
23.658577	3.935000	65.625015
24.658577	3.935000	57.808247
-39.341423	4.935000	70.117874
-38.341423	4.935000	61.622017
-37.341423	4.935000	69.238602
-36.341423	4.935000	71.253777
-35.341423	4.935000	71.221619
-34.341423	4.935000	71.041801
-33.341423	4.935000	59.152218
-32.341423	4.935000	63.812458
-31.341423	4.935000	62.868938
-30.341423	4.935000	63.162365
-29.341423	4.935000	65.243629
-28.341423	4.935000	61.118183
-27.341423	4.935000	62.887043
-26.341423	4.935000	52.725090
-25.341423	4.935000	68.536285
-24.341423	4.935000	68.279945
-23.341423	4.935000	58.078049
-22.341423	4.935000	59.339077
-21.341423	4.935000	50.035313
-20.341423	4.935000	54.659134
-19.341423	4.935000	78.049522
-18.341423	4.935000	80.198112
-17.341423	4.935000	75.420967
-16.341423	4.935000	79.496384
-15.341423	4.935000	67.870102
-14.341423	4.935000	70.910721
-13.341423	4.935000	78.952484
-12.341423	4.935000	67.660027
-11.341423	4.935000	63.684727
-10.341423	4.935000	53.676292
-9.341423	4.935000	62.586571
-8.341423	4.935000	50.962719
-7.341423	4.935000	53.506092
-6.341423	4.935000	72.121536
-5.341423	4.935000	71.809753
-4.341423	4.935000	83.907913
-3.341423	4.935000	75.088280
-2.341423	4.935000	80.407578
-1.341423	4.935000	83.779991
-0.341423	4.935000	78.809433
0.658577	4.935000	80.311234
1.658577	4.935000	74.183983
2.658577	4.935000	67.840752
3.658577	4.935000	50.213490
4.658577	4.935000	60.372562
5.658577	4.935000	65.852669
6.658577	4.935000	61.633339
7.658577	4.935000	61.525330
8.658577	4.935000	70.322037
9.658577	4.935000	71.543968
10.658577	4.935000	71.772888
11.658577	4.935000	64.010117
12.658577	4.935000	69.174835
13.658577	4.935000	59.579502
14.658577	4.935000	65.253082
15.658577	4.935000	73.854019
16.658577	4.935000	63.009350
17.658577	4.935000	64.612488
18.658577	4.935000	75.674591
19.658577	4.935000	76.159019
20.658577	4.935000	62.006237
21.658577	4.935000	70.476189
22.658577	4.935000	67.876762
23.658577	4.935000	72.749847
24.658577	4.935000	57.978539
-39.341423	5.935000	72.866806
-38.341423	5.935000	75.029663
-37.341423	5.935000	72.938316
-36.341423	5.935000	73.527855
-35.341423	5.935000	78.748207
-34.341423	5.935000	79.483406
-33.341423	5.935000	81.349007
-32.341423	5.935000	73.315727
-31.341423	5.935000	65.968468
-30.341423	5.935000	72.510002
-29.341423	5.935000	62.835915
-28.341423	5.935000	72.922897
-27.341423	5.935000	70.516319
-26.341423	5.935000	62.830605
-25.341423	5.935000	68.012405
-24.341423	5.935000	75.428101
-23.341423	5.935000	61.446316
-22.341423	5.935000	42.339264
-21.341423	5.935000	58.149170
-20.341423	5.935000	72.156174
-19.341423	5.935000	77.320518
-18.341423	5.935000	78.831017
-17.341423	5.935000	76.169067
-16.341423	5.935000	76.205833
-15.341423	5.935000	72.771980
-14.341423	5.935000	68.002815
-13.341423	5.935000	77.071114
-12.341423	5.935000	81.018356
-11.341423	5.935000	64.568466
-10.341423	5.935000	68.566429
-9.341423	5.935000	63.271278
-8.341423	5.935000	64.366501
-7.341423	5.935000	45.148624
-6.341423	5.935000	58.231544
-5.341423	5.935000	75.385551
-4.341423	5.935000	59.419868
-3.341423	5.935000	71.267754
-2.341423	5.935000	80.257195
-1.341423	5.935000	79.308968
-0.341423	5.935000	80.544395
0.658577	5.935000	80.083267
1.658577	5.935000	73.677010
2.658577	5.935000	58.711975
3.658577	5.935000	60.147038
4.658577	5.935000	57.585194
5.658577	5.935000	60.661934
6.658577	5.935000	48.897034
7.658577	5.935000	55.058788
8.658577	5.935000	52.444111
9.658577	5.935000	66.620293
10.658577	5.935000	70.353889
11.658577	5.935000	64.147675
12.658577	5.935000	60.801517
13.658577	5.935000	59.148426
14.658577	5.935000	63.059929
15.658577	5.935000	65.743324
16.658577	5.935000	76.157265
17.658577	5.935000	79.321098
18.658577	5.935000	76.542557
19.658577	5.935000	72.743645
20.658577	5.935000	68.908905
21.658577	5.935000	69.229439
22.658577	5.935000	73.034264
23.658577	5.935000	76.855774
24.658577	5.935000	72.250603
-39.341423	6.935000	76.647614
-38.341423	6.935000	74.300613
-37.341423	6.935000	77.919922
-36.341423	6.935000	73.313927
-35.341423	6.935000	76.868088
-34.341423	6.935000	80.415932
-33.341423	6.935000	83.061813
-32.341423	6.935000	74.069077
-31.341423	6.935000	64.926987
-30.341423	6.935000	69.724762
-29.341423	6.935000	64.023804
-28.341423	6.935000	64.060150
-27.341423	6.935000	49.498188
-26.341423	6.935000	48.724998
-25.341423	6.935000	67.929428
-24.341423	6.935000	68.600159
-23.341423	6.935000	57.807285
-22.341423	6.935000	40.274265
-21.341423	6.935000	51.762249
-20.341423	6.935000	76.706085
-19.341423	6.935000	76.159874
-18.341423	6.935000	78.171616
-17.341423	6.935000	76.944344
-16.341423	6.935000	76.875542
-15.341423	6.935000	68.208694
-14.341423	6.935000	71.518120
-13.341423	6.935000	71.587440
-12.341423	6.935000	69.914780
-11.341423	6.935000	59.880920
-10.341423	6.935000	52.437664
-9.341423	6.935000	56.842693
-8.341423	6.935000	60.954517
-7.341423	6.935000	51.668308
-6.341423	6.935000	48.652924
-5.341423	6.935000	63.402851
-4.341423	6.935000	73.559555
-3.341423	6.935000	58.672554
-2.341423	6.935000	76.739792
-1.341423	6.935000	82.744064
-0.341423	6.935000	80.308159
0.658577	6.935000	78.917717
1.658577	6.935000	76.151993
2.658577	6.935000	61.860275
3.658577	6.935000	68.638428
4.658577	6.935000	59.407272
5.658577	6.935000	44.896172
6.658577	6.935000	57.735474
7.658577	6.935000	60.458355
8.658577	6.935000	56.589413
9.658577	6.935000	57.438892
10.658577	6.935000	67.136902
11.658577	6.935000	63.903053
12.658577	6.935000	66.351692
13.658577	6.935000	65.902969
14.658577	6.935000	67.795250
15.658577	6.935000	62.493835
16.658577	6.935000	67.528748
17.658577	6.935000	77.076546
18.658577	6.935000	78.294678
19.658577	6.935000	63.115665
20.658577	6.935000	69.107834
21.658577	6.935000	69.356125
22.658577	6.935000	72.253021
23.658577	6.935000	73.556068
24.658577	6.935000	77.411766
-39.341423	7.935000	79.548149
-38.341423	7.935000	79.490044
-37.341423	7.935000	75.459656
-36.341423	7.935000	76.977333
-35.341423	7.935000	80.094749
-34.341423	7.935000	77.856316
-33.341423	7.935000	78.670166
-32.341423	7.935000	76.402374
-31.341423	7.935000	71.437637
-30.341423	7.935000	60.552643
-29.341423	7.935000	65.573875
-28.341423	7.935000	56.189796
-27.341423	7.935000	41.442661
-26.341423	7.935000	49.195927
-25.341423	7.935000	55.794983
-24.341423	7.935000	53.795280
-23.341423	7.935000	58.091557
-22.341423	7.935000	46.243576
-21.341423	7.935000	41.883686
-20.341423	7.935000	61.507732
-19.341423	7.935000	74.249031
-18.341423	7.935000	64.924927
-17.341423	7.935000	72.812241
-16.341423	7.935000	67.963524
-15.341423	7.935000	69.901047
-14.341423	7.935000	74.885422
-13.341423	7.935000	64.345673
-12.341423	7.935000	72.540047
-11.341423	7.935000	55.903542
-10.341423	7.935000	45.225780
-9.341423	7.935000	46.580502
-8.341423	7.935000	47.369942
-7.341423	7.935000	44.549702
-6.341423	7.935000	56.865585
-5.341423	7.935000	59.447960
-4.341423	7.935000	62.275002
-3.341423	7.935000	56.574905
-2.341423	7.935000	70.693810
-1.341423	7.935000	81.342560
-0.341423	7.935000	79.069679
0.658577	7.935000	77.871017
1.658577	7.935000	65.166939
2.658577	7.935000	66.788811
3.658577	7.935000	53.070358
4.658577	7.935000	52.961720
5.658577	7.935000	40.123657
6.658577	7.935000	28.646172
7.658577	7.935000	51.804722
8.658577	7.935000	61.403713
9.658577	7.935000	57.532677
10.658577	7.935000	64.194061
11.658577	7.935000	63.684750
12.658577	7.935000	67.882378
13.658577	7.935000	66.058907
14.658577	7.935000	73.907005
15.658577	7.935000	62.519768
16.658577	7.935000	62.630817
17.658577	7.935000	64.170990
18.658577	7.935000	69.554779
19.658577	7.935000	73.525726
20.658577	7.935000	67.383438
21.658577	7.935000	66.287827
22.658577	7.935000	66.214111
23.658577	7.935000	67.344482
24.658577	7.935000	74.731277
-39.341423	8.935000	76.463318
-38.341423	8.935000	76.268280
-37.341423	8.935000	80.321571
-36.341423	8.935000	80.099159
-35.341423	8.935000	78.671471
-34.341423	8.935000	76.146851
-33.341423	8.935000	77.523026
-32.341423	8.935000	74.732330
-31.341423	8.935000	73.796898
-30.341423	8.935000	64.411423
-29.341423	8.935000	62.779114
-28.341423	8.935000	65.277489
-27.341423	8.935000	56.391060
-26.341423	8.935000	55.093517
-25.341423	8.935000	57.116867
-24.341423	8.935000	53.029835
-23.341423	8.935000	53.089603
-22.341423	8.935000	49.864063
-21.341423	8.935000	51.057487
-20.341423	8.935000	57.629906
-19.341423	8.935000	61.658936
-18.341423	8.935000	65.468018
-17.341423	8.935000	71.529472
-16.341423	8.935000	72.251328
-15.341423	8.935000	68.798439
-14.341423	8.935000	70.237793
-13.341423	8.935000	65.724014
-12.341423	8.935000	71.546387
-11.341423	8.935000	52.783054
-10.341423	8.935000	46.380375
-9.341423	8.935000	45.947720
-8.341423	8.935000	46.067738
-7.341423	8.935000	51.325134
-6.341423	8.935000	67.030701
-5.341423	8.935000	53.188599
-4.341423	8.935000	50.241520
-3.341423	8.935000	60.057339
-2.341423	8.935000	69.147430
-1.341423	8.935000	76.562950
-0.341423	8.935000	72.873886
0.658577	8.935000	72.102036
1.658577	8.935000	61.726147
2.658577	8.935000	62.002438
3.658577	8.935000	19.765011
4.658577	8.935000	57.714691
5.658577	8.935000	30.425512
6.658577	8.935000	16.526535
7.658577	8.935000	42.415211
8.658577	8.935000	28.535416
9.658577	8.935000	62.720573
10.658577	8.935000	54.350559
11.658577	8.935000	39.405128
12.658577	8.935000	58.445938
13.658577	8.935000	65.841125
14.658577	8.935000	66.894630
15.658577	8.935000	70.948570
16.658577	8.935000	75.776802
17.658577	8.935000	67.797989
18.658577	8.935000	69.707733
19.658577	8.935000	71.627525
20.658577	8.935000	82.738411
21.658577	8.935000	76.985855
22.658577	8.935000	63.398396
23.658577	8.935000	79.830055
24.658577	8.935000	68.836845
-39.341423	9.935000	77.879898
-38.341423	9.935000	80.091957
-37.341423	9.935000	83.427048
-36.341423	9.935000	78.400383
-35.341423	9.935000	79.993149
-34.341423	9.935000	78.044273
-33.341423	9.935000	77.419479
-32.341423	9.935000	73.537041
-31.341423	9.935000	72.434921
-30.341423	9.935000	72.897697
-29.341423	9.935000	70.204033
-28.341423	9.935000	66.646225
-27.341423	9.935000	57.271721
-26.341423	9.935000	57.390953
-25.341423	9.935000	58.118176
-24.341423	9.935000	60.917271
-23.341423	9.935000	64.587952
-22.341423	9.935000	63.871891
-21.341423	9.935000	63.611736
-20.341423	9.935000	59.336983
-19.341423	9.935000	63.962574
-18.341423	9.935000	62.832840
-17.341423	9.935000	71.577240
-16.341423	9.935000	66.463135
-15.341423	9.935000	71.722740
-14.341423	9.935000	68.615768
-13.341423	9.935000	71.046036
-12.341423	9.935000	65.878227
-11.341423	9.935000	57.690113
-10.341423	9.935000	47.309750
-9.341423	9.935000	47.565044
-8.341423	9.935000	46.563541
-7.341423	9.935000	57.302662
-6.341423	9.935000	72.048004
-5.341423	9.935000	75.215889
-4.341423	9.935000	67.123894
-3.341423	9.935000	63.040211
-2.341423	9.935000	64.092728
-1.341423	9.935000	69.183296
-0.341423	9.935000	71.917946
0.658577	9.935000	66.209351
1.658577	9.935000	61.985752
2.658577	9.935000	43.455841
3.658577	9.935000	45.471077
4.658577	9.935000	62.552399
5.658577	9.935000	35.741821
6.658577	9.935000	22.431419
7.658577	9.935000	46.525578
8.658577	9.935000	35.823948
9.658577	9.935000	55.550819
10.658577	9.935000	60.318180
11.658577	9.935000	55.972027
12.658577	9.935000	39.236893
13.658577	9.935000	72.492500
14.658577	9.935000	64.347191
15.658577	9.935000	98.002609
16.658577	9.935000	61.023327
17.658577	9.935000	79.537628
18.658577	9.935000	54.669369
19.658577	9.935000	2.089935
20.658577	9.935000	68.004417
21.658577	9.935000	66.556145
22.658577	9.935000	68.660622
23.658577	9.935000	81.258415
24.658577	9.935000	119.385445
-39.341423	10.935000	82.974754
-38.341423	10.935000	79.754440
-37.341423	10.935000	78.819122
-36.341423	10.935000	79.957527
-35.341423	10.935000	81.168228
-34.341423	10.935000	76.490028
-33.341423	10.935000	78.074997
-32.341423	10.935000	75.344696
-31.341423	10.935000	73.530334
-30.341423	10.935000	75.048172
-29.341423	10.935000	72.535477
-28.341423	10.935000	67.874359
-27.341423	10.935000	65.807785
-26.341423	10.935000	58.805248
-25.341423	10.935000	62.797176
-24.341423	10.935000	49.728104
-23.341423	10.935000	77.674995
-22.341423	10.935000	63.800343
-21.341423	10.935000	61.382965
-20.341423	10.935000	67.086578
-19.341423	10.935000	60.764812
-18.341423	10.935000	65.731316
-17.341423	10.935000	65.971603
-16.341423	10.935000	54.212357
-15.341423	10.935000	68.749962
-14.341423	10.935000	67.923355
-13.341423	10.935000	67.634651
-12.341423	10.935000	54.953316
-11.341423	10.935000	54.146416
-10.341423	10.935000	49.688953
-9.341423	10.935000	46.978306
-8.341423	10.935000	47.589016
-7.341423	10.935000	60.921028
-6.341423	10.935000	74.658821
-5.341423	10.935000	76.406525
-4.341423	10.935000	72.784935
-3.341423	10.935000	63.166328
-2.341423	10.935000	61.084984
-1.341423	10.935000	68.815041
-0.341423	10.935000	71.451294
0.658577	10.935000	66.263893
1.658577	10.935000	59.935223
2.658577	10.935000	51.772190
3.658577	10.935000	62.586273
4.658577	10.935000	23.971359
5.658577	10.935000	28.676950
6.658577	10.935000	37.278988
7.658577	10.935000	60.578300
8.658577	10.935000	69.735138
9.658577	10.935000	49.282795
10.658577	10.935000	69.565872
11.658577	10.935000	51.031792
12.658577	10.935000	57.839188
13.658577	10.935000	64.322166
14.658577	10.935000	49.135063
15.658577	10.935000	1.122312
16.658577	10.935000	0.639823
17.658577	10.935000	147.403961
18.658577	10.935000	1.561730
19.658577	10.935000	32.168594
20.658577	10.935000	67.838501
21.658577	10.935000	65.758080
22.658577	10.935000	74.098663
23.658577	10.935000	62.771366
24.658577	10.935000	62.134857
-39.341423	11.935000	77.318451
-38.341423	11.935000	82.691963
-37.341423	11.935000	81.123817
-36.341423	11.935000	78.793129
-35.341423	11.935000	82.031189
-34.341423	11.935000	81.086586
-33.341423	11.935000	74.844696
-32.341423	11.935000	83.314278
-31.341423	11.935000	75.564743
-30.341423	11.935000	77.960899
-29.341423	11.935000	72.133972
-28.341423	11.935000	69.022797
-27.341423	11.935000	59.459240
-26.341423	11.935000	49.925785
-25.341423	11.935000	67.411842
-24.341423	11.935000	76.095871
-23.341423	11.935000	71.517395
-22.341423	11.935000	58.598537
-21.341423	11.935000	65.332809
-20.341423	11.935000	63.749622
-19.341423	11.935000	64.597504
-18.341423	11.935000	62.200966
-17.341423	11.935000	51.810898
-16.341423	11.935000	53.406460
-15.341423	11.935000	70.133682
-14.341423	11.935000	68.642479
-13.341423	11.935000	64.677124
-12.341423	11.935000	60.747643
-11.341423	11.935000	55.134396
-10.341423	11.935000	50.339218
-9.341423	11.935000	45.429104
-8.341423	11.935000	46.897942
-7.341423	11.935000	51.820118
-6.341423	11.935000	58.177608
-5.341423	11.935000	72.787376
-4.341423	11.935000	73.646599
-3.341423	11.935000	69.985817
-2.341423	11.935000	69.436539
-1.341423	11.935000	67.888313
-0.341423	11.935000	72.416328
0.658577	11.935000	63.466202
1.658577	11.935000	59.571331
2.658577	11.935000	57.575684
3.658577	11.935000	27.234076
4.658577	11.935000	20.297590
5.658577	11.935000	47.811562
6.658577	11.935000	70.402184
7.658577	11.935000	67.176537
8.658577	11.935000	70.259308
9.658577	11.935000	57.566360
10.658577	11.935000	65.372025
11.658577	11.935000	60.020576
12.658577	11.935000	66.946899
13.658577	11.935000	61.051395
14.658577	11.935000	50.304131
15.658577	11.935000	0.639823
16.658577	11.935000	136.308975
17.658577	11.935000	0.639823
18.658577	11.935000	174.393295
19.658577	11.935000	15.137265
20.658577	11.935000	67.791634
21.658577	11.935000	66.223885
22.658577	11.935000	70.210533
23.658577	11.935000	66.888580
24.658577	11.935000	73.639008
-39.341423	12.935000	81.519867
-38.341423	12.935000	75.855499
-37.341423	12.935000	80.884232
-36.341423	12.935000	85.359123
-35.341423	12.935000	81.008446
-34.341423	12.935000	78.360352
-33.341423	12.935000	74.979942
-32.341423	12.935000	78.742859
-31.341423	12.935000	75.684212
-30.341423	12.935000	72.821556
-29.341423	12.935000	72.130699
-28.341423	12.935000	73.318115
-27.341423	12.935000	58.152767
-26.341423	12.935000	59.230228
-25.341423	12.935000	64.704163
-24.341423	12.935000	74.872520
-23.341423	12.935000	66.332008
-22.341423	12.935000	73.738785
-21.341423	12.935000	69.055824
-20.341423	12.935000	60.384354
-19.341423	12.935000	70.564651
-18.341423	12.935000	60.737465
-17.341423	12.935000	58.013348
-16.341423	12.935000	52.798290
-15.341423	12.935000	67.517319
-14.341423	12.935000	67.665703
-13.341423	12.935000	60.146839
-12.341423	12.935000	49.258450
-11.341423	12.935000	58.097794
-10.341423	12.935000	53.834015
-9.341423	12.935000	56.274506
-8.341423	12.935000	31.589943
-7.341423	12.935000	50.697556
-6.341423	12.935000	67.568787
-5.341423	12.935000	67.904747
-4.341423	12.935000	69.929626
-3.341423	12.935000	65.421600
-2.341423	12.935000	53.729301
-1.341423	12.935000	57.446133
-0.341423	12.935000	72.881042
0.658577	12.935000	63.572880
1.658577	12.935000	52.562897
2.658577	12.935000	63.018768
3.658577	12.935000	48.817440
4.658577	12.935000	21.884670
5.658577	12.935000	62.410706
6.658577	12.935000	68.767624
7.658577	12.935000	72.201149
8.658577	12.935000	60.699619
9.658577	12.935000	69.134499
10.658577	12.935000	63.796185
11.658577	12.935000	61.153099
12.658577	12.935000	56.028732
13.658577	12.935000	73.117043
14.658577	12.935000	104.582100
15.658577	12.935000	2.079329
16.658577	12.935000	1.358022
17.658577	12.935000	173.018738
18.658577	12.935000	24.144566
19.658577	12.935000	22.430899
20.658577	12.935000	98.822845
21.658577	12.935000	61.864319
22.658577	12.935000	62.952553
23.658577	12.935000	68.386826
24.658577	12.935000	68.452278
-39.341423	13.935000	80.146584
-38.341423	13.935000	78.717323
-37.341423	13.935000	73.824814
-36.341423	13.935000	77.182838
-35.341423	13.935000	75.135986
-34.341423	13.935000	75.234985
-33.341423	13.935000	79.863342
-32.341423	13.935000	78.519974
-31.341423	13.935000	77.049782
-30.341423	13.935000	71.911942
-29.341423	13.935000	70.204872
-28.341423	13.935000	59.261879
-27.341423	13.935000	60.206280
-26.341423	13.935000	55.975895
-25.341423	13.935000	55.790382
-24.341423	13.935000	72.273659
-23.341423	13.935000	58.025448
-22.341423	13.935000	61.116413
-21.341423	13.935000	68.648415
-20.341423	13.935000	66.745338
-19.341423	13.935000	74.799637
-18.341423	13.935000	73.752464
-17.341423	13.935000	66.728767
-16.341423	13.935000	57.433712
-15.341423	13.935000	68.332588
-14.341423	13.935000	73.773376
-13.341423	13.935000	67.420013
-12.341423	13.935000	57.929230
-11.341423	13.935000	72.856842
-10.341423	13.935000	68.856224
-9.341423	13.935000	67.164459
-8.341423	13.935000	37.440487
-7.341423	13.935000	52.451397
-6.341423	13.935000	73.358772
-5.341423	13.935000	66.448326
-4.341423	13.935000	69.018944
-3.341423	13.935000	67.039993
-2.341423	13.935000	48.825867
-1.341423	13.935000	52.577438
-0.341423	13.935000	65.203514
0.658577	13.935000	63.019913
1.658577	13.935000	56.015366
2.658577	13.935000	59.647141
3.658577	13.935000	70.445045
4.658577	13.935000	46.285046
5.658577	13.935000	64.535667
6.658577	13.935000	72.281860
7.658577	13.935000	71.958969
8.658577	13.935000	72.543724
9.658577	13.935000	63.216545
10.658577	13.935000	59.516758
11.658577	13.935000	50.867699
12.658577	13.935000	59.971397
13.658577	13.935000	63.162300
14.658577	13.935000	33.981308
15.658577	13.935000	66.336075
16.658577	13.935000	102.788429
17.658577	13.935000	55.618382
18.658577	13.935000	0.712545
19.658577	13.935000	194.692947
20.658577	13.935000	41.842022
21.658577	13.935000	316.652740
22.658577	13.935000	43.313175
23.658577	13.935000	46.379845
24.658577	13.935000	27.726439
-39.341423	14.935000	78.117950
-38.341423	14.935000	76.917221
-37.341423	14.935000	76.309174
-36.341423	14.935000	75.986122
-35.341423	14.935000	74.714745
-34.341423	14.935000	78.608932
-33.341423	14.935000	81.500473
-32.341423	14.935000	81.892807
-31.341423	14.935000	79.619461
-30.341423	14.935000	73.250076
-29.341423	14.935000	75.895264
-28.341423	14.935000	59.878071
-27.341423	14.935000	62.376286
-26.341423	14.935000	58.712635
-25.341423	14.935000	59.248875
-24.341423	14.935000	60.698349
-23.341423	14.935000	65.953987
-22.341423	14.935000	63.822861
-21.341423	14.935000	69.032303
-20.341423	14.935000	65.853241
-19.341423	14.935000	72.679245
-18.341423	14.935000	71.500496
-17.341423	14.935000	64.557495
-16.341423	14.935000	72.878677
-15.341423	14.935000	70.135910
-14.341423	14.935000	74.057678
-13.341423	14.935000	73.654381
-12.341423	14.935000	72.695496
-11.341423	14.935000	73.280273
-10.341423	14.935000	91.407738
-9.341423	14.935000	63.014011
-8.341423	14.935000	62.942944
-7.341423	14.935000	67.080048
-6.341423	14.935000	67.100609
-5.341423	14.935000	44.558357
-4.341423	14.935000	54.085155
-3.341423	14.935000	64.197281
-2.341423	14.935000	92.307724
-1.341423	14.935000	68.857849
-0.341423	14.935000	60.545246
0.658577	14.935000	49.946346
1.658577	14.935000	60.332371
2.658577	14.935000	63.621899
3.658577	14.935000	69.880814
4.658577	14.935000	103.620285
5.658577	14.935000	71.335732
6.658577	14.935000	79.472954
7.658577	14.935000	72.768188
8.658577	14.935000	59.124073
9.658577	14.935000	62.087967
10.658577	14.935000	53.739265
11.658577	14.935000	48.344898
12.658577	14.935000	66.398224
13.658577	14.935000	74.337463
14.658577	14.935000	25.622065
15.658577	14.935000	1066.799072
16.658577	14.935000	203.891296
17.658577	14.935000	525.641724
18.658577	14.935000	197.357788
19.658577	14.935000	0.654374
20.658577	14.935000	3.920141
21.658577	14.935000	0.695428
22.658577	14.935000	0.639823
23.658577	14.935000	135.699509
24.658577	14.935000	126.781311
-39.341423	15.935000	78.373566
-38.341423	15.935000	74.159012
-37.341423	15.935000	78.864952
-36.341423	15.935000	78.034805
-35.341423	15.935000	74.167145
-34.341423	15.935000	80.991806
-33.341423	15.935000	77.085434
-32.341423	15.935000	76.828720
-31.341423	15.935000	68.404381
-30.341423	15.935000	61.953865
-29.341423	15.935000	66.535751
-28.341423	15.935000	66.556801
-27.341423	15.935000	63.402878
-26.341423	15.935000	62.464642
-25.341423	15.935000	58.437992
-24.341423	15.935000	57.306637
-23.341423	15.935000	72.062576
-22.341423	15.935000	77.239609
-21.341423	15.935000	60.343960
-20.341423	15.935000	59.029472
-19.341423	15.935000	59.189930
-18.341423	15.935000	72.471718
-17.341423	15.935000	75.981567
-16.341423	15.935000	77.745422
-15.341423	15.935000	75.191597
-14.341423	15.935000	75.268440
-13.341423	15.935000	74.911186
-12.341423	15.935000	74.878944
-11.341423	15.935000	72.454254
-10.341423	15.935000	78.127243
-9.341423	15.935000	40.669579
-8.341423	15.935000	72.556938
-7.341423	15.935000	70.836205
-6.341423	15.935000	60.388763
-5.341423	15.935000	25.788708
-4.341423	15.935000	23.441462
-3.341423	15.935000	30.114185
-2.341423	15.935000	55.417534
-1.341423	15.935000	68.646324
-0.341423	15.935000	52.490601
0.658577	15.935000	48.836258
1.658577	15.935000	59.384624
2.658577	15.935000	62.782063
3.658577	15.935000	67.723404
4.658577	15.935000	83.814285
5.658577	15.935000	2385.346191
6.658577	15.935000	65.082275
7.658577	15.935000	65.775749
8.658577	15.935000	66.059273
9.658577	15.935000	58.938419
10.658577	15.935000	60.733856
11.658577	15.935000	63.838161
12.658577	15.935000	65.610741
13.658577	15.935000	70.538391
14.658577	15.935000	332.669373
15.658577	15.935000	0.937370
16.658577	15.935000	2489.797363
17.658577	15.935000	0.639823
18.658577	15.935000	71.403877
19.658577	15.935000	0.639823
20.658577	15.935000	2595.124023
21.658577	15.935000	570.749329
22.658577	15.935000	0.639823
23.658577	15.935000	0.639823
24.658577	15.935000	0.827329
