#XList		#YList		#IList		
-39.341423	-21.065000	246.077209
-38.341423	-21.065000	208.548615
-37.341423	-21.065000	171.697495
-36.341423	-21.065000	187.218048
-35.341423	-21.065000	192.069885
-34.341423	-21.065000	591.069641
-33.341423	-21.065000	901.953430
-32.341423	-21.065000	846.687317
-31.341423	-21.065000	612.924500
-30.341423	-21.065000	863.819092
-29.341423	-21.065000	399.814392
-28.341423	-21.065000	563.765320
-27.341423	-21.065000	360.366486
-26.341423	-21.065000	530.646179
-25.341423	-21.065000	216.512009
-24.341423	-21.065000	24.920389
-23.341423	-21.065000	7.519130
-22.341423	-21.065000	23.840929
-21.341423	-21.065000	222.281845
-20.341423	-21.065000	31.519243
-19.341423	-21.065000	12.820676
-18.341423	-21.065000	18.750305
-17.341423	-21.065000	166.273422
-16.341423	-21.065000	924.874390
-15.341423	-21.065000	875.679321
-14.341423	-21.065000	684.351929
-13.341423	-21.065000	492.466034
-12.341423	-21.065000	619.374634
-11.341423	-21.065000	110.661919
-10.341423	-21.065000	4.819459
-9.341423	-21.065000	23.029800
-8.341423	-21.065000	224.494217
-7.341423	-21.065000	547.963318
-6.341423	-21.065000	706.963928
-5.341423	-21.065000	519.882874
-4.341423	-21.065000	125.918320
-3.341423	-21.065000	63.410419
-2.341423	-21.065000	454.700073
-1.341423	-21.065000	469.193726
-0.341423	-21.065000	516.243530
0.658577	-21.065000	471.559479
1.658577	-21.065000	404.984497
2.658577	-21.065000	399.498993
3.658577	-21.065000	431.219574
4.658577	-21.065000	294.990173
5.658577	-21.065000	400.481567
6.658577	-21.065000	22.755934
7.658577	-21.065000	0.405543
8.658577	-21.065000	9.776747
9.658577	-21.065000	182.843231
10.658577	-21.065000	235.967514
11.658577	-21.065000	467.766571
12.658577	-21.065000	483.109589
13.658577	-21.065000	499.173767
14.658577	-21.065000	613.526489
15.658577	-21.065000	394.748840
16.658577	-21.065000	265.991486
17.658577	-21.065000	382.976837
18.658577	-21.065000	640.368225
19.658577	-21.065000	321.275726
20.658577	-21.065000	241.582016
21.658577	-21.065000	36.727432
22.658577	-21.065000	10.524697
23.658577	-21.065000	13.009502
24.658577	-21.065000	0.000000
-39.341423	-20.065000	374.259521
-38.341423	-20.065000	292.922791
-37.341423	-20.065000	177.335068
-36.341423	-20.065000	199.095352
-35.341423	-20.065000	219.618744
-34.341423	-20.065000	366.905121
-33.341423	-20.065000	657.511230
-32.341423	-20.065000	901.573669
-31.341423	-20.065000	870.640198
-30.341423	-20.065000	766.706116
-29.341423	-20.065000	504.348450
-28.341423	-20.065000	531.268433
-27.341423	-20.065000	627.557434
-26.341423	-20.065000	658.856445
-25.341423	-20.065000	639.214294
-24.341423	-20.065000	507.320465
-23.341423	-20.065000	208.383789
-22.341423	-20.065000	55.579784
-21.341423	-20.065000	561.393799
-20.341423	-20.065000	337.567627
-19.341423	-20.065000	291.356262
-18.341423	-20.065000	260.572357
-17.341423	-20.065000	568.052246
-16.341423	-20.065000	860.406555
-15.341423	-20.065000	820.336426
-14.341423	-20.065000	653.601563
-13.341423	-20.065000	657.884338
-12.341423	-20.065000	695.944275
-11.341423	-20.065000	67.999817
-10.341423	-20.065000	80.324005
-9.341423	-20.065000	443.280151
-8.341423	-20.065000	527.915588
-7.341423	-20.065000	552.850464
-6.341423	-20.065000	645.567627
-5.341423	-20.065000	581.451843
-4.341423	-20.065000	121.513969
-3.341423	-20.065000	102.183350
-2.341423	-20.065000	692.555054
-1.341423	-20.065000	558.675720
-0.341423	-20.065000	457.956543
0.658577	-20.065000	354.671082
1.658577	-20.065000	361.884613
2.658577	-20.065000	368.778168
3.658577	-20.065000	292.091766
4.658577	-20.065000	322.675751
5.658577	-20.065000	230.055176
6.658577	-20.065000	4.424581
7.658577	-20.065000	2.011276
8.658577	-20.065000	16.774132
9.658577	-20.065000	277.071228
10.658577	-20.065000	440.638428
11.658577	-20.065000	530.352783
12.658577	-20.065000	576.000366
13.658577	-20.065000	583.249756
14.658577	-20.065000	629.599548
15.658577	-20.065000	518.129395
16.658577	-20.065000	517.510010
17.658577	-20.065000	328.378235
18.658577	-20.065000	606.732727
19.658577	-20.065000	440.189301
20.658577	-20.065000	391.143280
21.658577	-20.065000	329.316528
22.658577	-20.065000	7.719042
23.658577	-20.065000	3.313710
24.658577	-20.065000	0.315133
-39.341423	-19.065000	366.427216
-38.341423	-19.065000	206.587692
-37.341423	-19.065000	191.603088
-36.341423	-19.065000	174.685562
-35.341423	-19.065000	279.838287
-34.341423	-19.065000	48.480515
-33.341423	-19.065000	418.669800
-32.341423	-19.065000	940.010742
-31.341423	-19.065000	715.582703
-30.341423	-19.065000	642.877563
-29.341423	-19.065000	655.311829
-28.341423	-19.065000	595.402710
-27.341423	-19.065000	577.509277
-26.341423	-19.065000	605.859924
-25.341423	-19.065000	595.209717
-24.341423	-19.065000	619.755798
-23.341423	-19.065000	643.472961
-22.341423	-19.065000	598.089355
-21.341423	-19.065000	672.439392
-20.341423	-19.065000	644.504822
-19.341423	-19.065000	654.553467
-18.341423	-19.065000	459.648773
-17.341423	-19.065000	764.449951
-16.341423	-19.065000	854.548889
-15.341423	-19.065000	828.591980
-14.341423	-19.065000	762.467529
-13.341423	-19.065000	704.509705
-12.341423	-19.065000	831.406372
-11.341423	-19.065000	284.027405
-10.341423	-19.065000	707.446167
-9.341423	-19.065000	658.382446
-8.341423	-19.065000	666.247559
-7.341423	-19.065000	679.034119
-6.341423	-19.065000	680.310181
-5.341423	-19.065000	472.709503
-4.341423	-19.065000	528.445313
-3.341423	-19.065000	805.071777
-2.341423	-19.065000	304.191956
-1.341423	-19.065000	383.326447
-0.341423	-19.065000	572.500793
0.658577	-19.065000	251.475052
1.658577	-19.065000	230.395706
2.658577	-19.065000	332.931854
3.658577	-19.065000	443.022980
4.658577	-19.065000	353.867706
5.658577	-19.065000	42.019920
6.658577	-19.065000	21.425518
7.658577	-19.065000	71.421097
8.658577	-19.065000	189.515457
9.658577	-19.065000	523.456604
10.658577	-19.065000	418.740753
11.658577	-19.065000	602.626953
12.658577	-19.065000	345.804565
13.658577	-19.065000	617.396301
14.658577	-19.065000	387.374390
15.658577	-19.065000	146.712738
16.658577	-19.065000	481.689636
17.658577	-19.065000	145.130508
18.658577	-19.065000	677.581909
19.658577	-19.065000	648.969299
20.658577	-19.065000	520.097656
21.658577	-19.065000	240.368317
22.658577	-19.065000	20.950377
23.658577	-19.065000	10.499913
24.658577	-19.065000	15.604420
-39.341423	-18.065000	505.727631
-38.341423	-18.065000	270.806427
-37.341423	-18.065000	471.029907
-36.341423	-18.065000	338.792267
-35.341423	-18.065000	318.199890
-34.341423	-18.065000	14.249643
-33.341423	-18.065000	248.719345
-32.341423	-18.065000	721.228821
-31.341423	-18.065000	842.759583
-30.341423	-18.065000	617.267029
-29.341423	-18.065000	337.496338
-28.341423	-18.065000	527.492126
-27.341423	-18.065000	587.839905
-26.341423	-18.065000	369.423553
-25.341423	-18.065000	595.368469
-24.341423	-18.065000	663.967285
-23.341423	-18.065000	639.007629
-22.341423	-18.065000	646.567261
-21.341423	-18.065000	700.130371
-20.341423	-18.065000	711.856506
-19.341423	-18.065000	592.435974
-18.341423	-18.065000	399.254486
-17.341423	-18.065000	475.187012
-16.341423	-18.065000	612.095825
-15.341423	-18.065000	850.532471
-14.341423	-18.065000	840.983154
-13.341423	-18.065000	876.689392
-12.341423	-18.065000	620.740295
-11.341423	-18.065000	793.377502
-10.341423	-18.065000	728.883118
-9.341423	-18.065000	661.669128
-8.341423	-18.065000	654.043213
-7.341423	-18.065000	699.435730
-6.341423	-18.065000	679.355896
-5.341423	-18.065000	191.710693
-4.341423	-18.065000	428.414795
-3.341423	-18.065000	373.759827
-2.341423	-18.065000	488.764282
-1.341423	-18.065000	353.103333
-0.341423	-18.065000	356.976929
0.658577	-18.065000	233.521378
1.658577	-18.065000	233.976898
2.658577	-18.065000	453.491089
3.658577	-18.065000	323.393921
4.658577	-18.065000	604.269836
5.658577	-18.065000	179.877594
6.658577	-18.065000	236.155640
7.658577	-18.065000	583.386963
8.658577	-18.065000	661.798401
9.658577	-18.065000	371.624573
10.658577	-18.065000	414.413086
11.658577	-18.065000	558.207153
12.658577	-18.065000	549.582947
13.658577	-18.065000	513.134583
14.658577	-18.065000	627.669006
15.658577	-18.065000	579.246033
16.658577	-18.065000	554.866211
17.658577	-18.065000	537.914673
18.658577	-18.065000	606.958252
19.658577	-18.065000	286.157959
20.658577	-18.065000	46.226097
21.658577	-18.065000	147.394867
22.658577	-18.065000	611.032715
23.658577	-18.065000	603.803772
24.658577	-18.065000	281.314331
-39.341423	-17.065000	641.867981
-38.341423	-17.065000	646.288208
-37.341423	-17.065000	781.015930
-36.341423	-17.065000	81.141396
-35.341423	-17.065000	20.230778
-34.341423	-17.065000	14.264755
-33.341423	-17.065000	36.728577
-32.341423	-17.065000	380.634277
-31.341423	-17.065000	568.457520
-30.341423	-17.065000	348.741333
-29.341423	-17.065000	311.808105
-28.341423	-17.065000	539.485107
-27.341423	-17.065000	527.726807
-26.341423	-17.065000	555.673523
-25.341423	-17.065000	587.411560
-24.341423	-17.065000	666.659607
-23.341423	-17.065000	689.936401
-22.341423	-17.065000	579.988037
-21.341423	-17.065000	631.612610
-20.341423	-17.065000	152.935806
-19.341423	-17.065000	174.488846
-18.341423	-17.065000	35.056854
-17.341423	-17.065000	296.406403
-16.341423	-17.065000	661.777893
-15.341423	-17.065000	922.971436
-14.341423	-17.065000	955.689941
-13.341423	-17.065000	683.665894
-12.341423	-17.065000	680.102966
-11.341423	-17.065000	626.206543
-10.341423	-17.065000	795.899597
-9.341423	-17.065000	659.638672
-8.341423	-17.065000	579.231995
-7.341423	-17.065000	118.189346
-6.341423	-17.065000	559.177124
-5.341423	-17.065000	651.314270
-4.341423	-17.065000	308.510315
-3.341423	-17.065000	432.590607
-2.341423	-17.065000	334.758667
-1.341423	-17.065000	475.374756
-0.341423	-17.065000	283.201202
0.658577	-17.065000	314.674042
1.658577	-17.065000	247.260895
2.658577	-17.065000	244.032425
3.658577	-17.065000	217.467880
4.658577	-17.065000	536.932556
5.658577	-17.065000	86.388519
6.658577	-17.065000	491.573517
7.658577	-17.065000	690.174561
8.658577	-17.065000	381.586365
9.658577	-17.065000	376.534790
10.658577	-17.065000	352.804718
11.658577	-17.065000	377.619202
12.658577	-17.065000	464.937317
13.658577	-17.065000	459.410950
14.658577	-17.065000	522.820618
15.658577	-17.065000	701.318359
16.658577	-17.065000	221.217957
17.658577	-17.065000	573.414795
18.658577	-17.065000	596.299194
19.658577	-17.065000	452.532135
20.658577	-17.065000	48.445335
21.658577	-17.065000	241.128860
22.658577	-17.065000	258.121735
23.658577	-17.065000	670.666687
24.658577	-17.065000	517.201111
-39.341423	-16.065000	400.631073
-38.341423	-16.065000	352.365784
-37.341423	-16.065000	178.047852
-36.341423	-16.065000	70.718109
-35.341423	-16.065000	179.131516
-34.341423	-16.065000	147.719345
-33.341423	-16.065000	343.159515
-32.341423	-16.065000	670.139343
-31.341423	-16.065000	365.575470
-30.341423	-16.065000	312.119446
-29.341423	-16.065000	575.903442
-28.341423	-16.065000	562.597778
-27.341423	-16.065000	514.167786
-26.341423	-16.065000	313.868622
-25.341423	-16.065000	602.968628
-24.341423	-16.065000	630.065735
-23.341423	-16.065000	630.096313
-22.341423	-16.065000	655.305237
-21.341423	-16.065000	529.908203
-20.341423	-16.065000	72.163422
-19.341423	-16.065000	30.142736
-18.341423	-16.065000	56.635414
-17.341423	-16.065000	195.846832
-16.341423	-16.065000	807.988098
-15.341423	-16.065000	743.999939
-14.341423	-16.065000	967.491882
-13.341423	-16.065000	852.603638
-12.341423	-16.065000	713.672485
-11.341423	-16.065000	703.684753
-10.341423	-16.065000	503.862274
-9.341423	-16.065000	555.392456
-8.341423	-16.065000	237.865112
-7.341423	-16.065000	337.007141
-6.341423	-16.065000	735.437622
-5.341423	-16.065000	693.118835
-4.341423	-16.065000	547.572937
-3.341423	-16.065000	216.797485
-2.341423	-16.065000	201.897980
-1.341423	-16.065000	365.809570
-0.341423	-16.065000	574.864014
0.658577	-16.065000	459.233337
1.658577	-16.065000	230.245529
2.658577	-16.065000	133.734604
3.658577	-16.065000	219.269531
4.658577	-16.065000	302.813599
5.658577	-16.065000	589.408691
6.658577	-16.065000	648.671204
7.658577	-16.065000	319.007507
8.658577	-16.065000	295.442566
9.658577	-16.065000	607.695374
10.658577	-16.065000	414.812927
11.658577	-16.065000	621.081421
12.658577	-16.065000	761.564758
13.658577	-16.065000	99.749931
14.658577	-16.065000	212.460007
15.658577	-16.065000	425.558502
16.658577	-16.065000	287.633606
17.658577	-16.065000	544.909058
18.658577	-16.065000	590.368164
19.658577	-16.065000	491.192780
20.658577	-16.065000	163.125458
21.658577	-16.065000	582.659668
22.658577	-16.065000	342.318573
23.658577	-16.065000	663.093567
24.658577	-16.065000	338.244537
-39.341423	-15.065000	166.596100
-38.341423	-15.065000	42.821659
-37.341423	-15.065000	92.980133
-36.341423	-15.065000	517.075562
-35.341423	-15.065000	795.541992
-34.341423	-15.065000	823.757202
-33.341423	-15.065000	835.044922
-32.341423	-15.065000	875.085510
-31.341423	-15.065000	431.777405
-30.341423	-15.065000	292.089539
-29.341423	-15.065000	534.868958
-28.341423	-15.065000	510.035919
-27.341423	-15.065000	354.033661
-26.341423	-15.065000	501.800751
-25.341423	-15.065000	594.953857
-24.341423	-15.065000	334.267212
-23.341423	-15.065000	560.793274
-22.341423	-15.065000	544.449829
-21.341423	-15.065000	425.799530
-20.341423	-15.065000	62.633469
-19.341423	-15.065000	24.155561
-18.341423	-15.065000	551.173462
-17.341423	-15.065000	539.324646
-16.341423	-15.065000	627.388062
-15.341423	-15.065000	683.343018
-14.341423	-15.065000	687.034180
-13.341423	-15.065000	624.240601
-12.341423	-15.065000	588.979187
-11.341423	-15.065000	285.618469
-10.341423	-15.065000	486.228180
-9.341423	-15.065000	476.843231
-8.341423	-15.065000	418.616119
-7.341423	-15.065000	390.404968
-6.341423	-15.065000	393.170746
-5.341423	-15.065000	465.321411
-4.341423	-15.065000	277.998169
-3.341423	-15.065000	216.743912
-2.341423	-15.065000	179.512161
-1.341423	-15.065000	207.699951
-0.341423	-15.065000	742.608887
0.658577	-15.065000	624.054871
1.658577	-15.065000	288.423126
2.658577	-15.065000	263.074860
3.658577	-15.065000	248.101700
4.658577	-15.065000	522.789490
5.658577	-15.065000	583.952393
6.658577	-15.065000	521.504700
7.658577	-15.065000	309.539124
8.658577	-15.065000	378.267517
9.658577	-15.065000	366.387207
10.658577	-15.065000	381.320953
11.658577	-15.065000	580.404846
12.658577	-15.065000	62.590355
13.658577	-15.065000	58.447624
14.658577	-15.065000	224.932693
15.658577	-15.065000	46.825596
16.658577	-15.065000	286.956573
17.658577	-15.065000	458.226288
18.658577	-15.065000	592.875916
19.658577	-15.065000	126.555809
20.658577	-15.065000	134.814453
21.658577	-15.065000	539.033020
22.658577	-15.065000	693.482117
23.658577	-15.065000	409.744324
24.658577	-15.065000	165.609314
-39.341423	-14.065000	54.735176
-38.341423	-14.065000	138.301025
-37.341423	-14.065000	739.019897
-36.341423	-14.065000	782.983826
-35.341423	-14.065000	702.314026
-34.341423	-14.065000	604.219666
-33.341423	-14.065000	699.822937
-32.341423	-14.065000	811.334229
-31.341423	-14.065000	597.266846
-30.341423	-14.065000	380.627258
-29.341423	-14.065000	468.187653
-28.341423	-14.065000	484.772919
-27.341423	-14.065000	408.285858
-26.341423	-14.065000	569.185303
-25.341423	-14.065000	584.399414
-24.341423	-14.065000	541.074829
-23.341423	-14.065000	584.519409
-22.341423	-14.065000	550.199402
-21.341423	-14.065000	143.664566
-20.341423	-14.065000	312.179352
-19.341423	-14.065000	43.617096
-18.341423	-14.065000	263.390076
-17.341423	-14.065000	271.583923
-16.341423	-14.065000	295.393555
-15.341423	-14.065000	830.702026
-14.341423	-14.065000	562.921326
-13.341423	-14.065000	238.261749
-12.341423	-14.065000	299.178284
-11.341423	-14.065000	315.113037
-10.341423	-14.065000	399.124725
-9.341423	-14.065000	280.393158
-8.341423	-14.065000	227.611908
-7.341423	-14.065000	250.764160
-6.341423	-14.065000	339.879669
-5.341423	-14.065000	375.201263
-4.341423	-14.065000	211.023270
-3.341423	-14.065000	201.018433
-2.341423	-14.065000	155.873337
-1.341423	-14.065000	207.048950
-0.341423	-14.065000	442.617432
0.658577	-14.065000	508.946228
1.658577	-14.065000	406.367432
2.658577	-14.065000	202.739471
3.658577	-14.065000	191.047409
4.658577	-14.065000	223.686035
5.658577	-14.065000	436.917358
6.658577	-14.065000	577.158386
7.658577	-14.065000	448.096069
8.658577	-14.065000	512.695007
9.658577	-14.065000	496.856720
10.658577	-14.065000	333.954742
11.658577	-14.065000	34.991726
12.658577	-14.065000	33.445984
13.658577	-14.065000	324.184998
14.658577	-14.065000	194.762299
15.658577	-14.065000	9.506843
16.658577	-14.065000	15.128272
17.658577	-14.065000	48.614624
18.658577	-14.065000	160.390472
19.658577	-14.065000	232.823425
20.658577	-14.065000	534.161072
21.658577	-14.065000	570.000793
22.658577	-14.065000	657.116882
23.658577	-14.065000	420.291992
24.658577	-14.065000	237.588196
-39.341423	-13.065000	412.649506
-38.341423	-13.065000	670.640625
-37.341423	-13.065000	785.752197
-36.341423	-13.065000	775.957153
-35.341423	-13.065000	662.109924
-34.341423	-13.065000	684.185608
-33.341423	-13.065000	743.286865
-32.341423	-13.065000	733.266052
-31.341423	-13.065000	660.089539
-30.341423	-13.065000	514.225586
-29.341423	-13.065000	429.425446
-28.341423	-13.065000	333.776398
-27.341423	-13.065000	508.725250
-26.341423	-13.065000	599.402222
-25.341423	-13.065000	606.845276
-24.341423	-13.065000	537.281006
-23.341423	-13.065000	609.836548
-22.341423	-13.065000	363.550110
-21.341423	-13.065000	330.010040
-20.341423	-13.065000	455.142365
-19.341423	-13.065000	340.206604
-18.341423	-13.065000	171.756821
-17.341423	-13.065000	134.892929
-16.341423	-13.065000	194.105331
-15.341423	-13.065000	294.478119
-14.341423	-13.065000	73.786026
-13.341423	-13.065000	21.607441
-12.341423	-13.065000	169.300964
-11.341423	-13.065000	374.169922
-10.341423	-13.065000	367.977020
-9.341423	-13.065000	248.683594
-8.341423	-13.065000	246.112839
-7.341423	-13.065000	281.097321
-6.341423	-13.065000	363.751465
-5.341423	-13.065000	328.184052
-4.341423	-13.065000	293.328369
-3.341423	-13.065000	301.891357
-2.341423	-13.065000	296.620422
-1.341423	-13.065000	329.296051
-0.341423	-13.065000	596.608887
0.658577	-13.065000	464.298981
1.658577	-13.065000	368.945313
2.658577	-13.065000	245.499008
3.658577	-13.065000	248.989349
4.658577	-13.065000	272.737427
5.658577	-13.065000	259.449951
6.658577	-13.065000	399.553589
7.658577	-13.065000	574.204956
8.658577	-13.065000	467.880920
9.658577	-13.065000	387.891052
10.658577	-13.065000	37.698669
11.658577	-13.065000	14.397464
12.658577	-13.065000	65.268967
13.658577	-13.065000	269.716827
14.658577	-13.065000	366.166077
15.658577	-13.065000	37.714100
16.658577	-13.065000	149.192459
17.658577	-13.065000	368.656250
18.658577	-13.065000	603.119812
19.658577	-13.065000	648.659607
20.658577	-13.065000	771.067078
21.658577	-13.065000	620.522461
22.658577	-13.065000	592.202637
23.658577	-13.065000	592.525574
24.658577	-13.065000	480.818878
-39.341423	-12.065000	581.381714
-38.341423	-12.065000	774.650757
-37.341423	-12.065000	761.079712
-36.341423	-12.065000	796.216187
-35.341423	-12.065000	666.145630
-34.341423	-12.065000	684.983887
-33.341423	-12.065000	656.204773
-32.341423	-12.065000	660.526306
-31.341423	-12.065000	561.079346
-30.341423	-12.065000	609.125000
-29.341423	-12.065000	684.680542
-28.341423	-12.065000	543.211182
-27.341423	-12.065000	505.799072
-26.341423	-12.065000	417.127075
-25.341423	-12.065000	548.366516
-24.341423	-12.065000	359.953522
-23.341423	-12.065000	614.466980
-22.341423	-12.065000	360.315552
-21.341423	-12.065000	280.630859
-20.341423	-12.065000	364.647888
-19.341423	-12.065000	303.113434
-18.341423	-12.065000	197.619293
-17.341423	-12.065000	125.127274
-16.341423	-12.065000	125.757881
-15.341423	-12.065000	207.877914
-14.341423	-12.065000	50.789543
-13.341423	-12.065000	81.340103
-12.341423	-12.065000	512.899597
-11.341423	-12.065000	354.170013
-10.341423	-12.065000	392.668396
-9.341423	-12.065000	226.807510
-8.341423	-12.065000	249.117889
-7.341423	-12.065000	366.024597
-6.341423	-12.065000	501.229645
-5.341423	-12.065000	514.424011
-4.341423	-12.065000	206.481079
-3.341423	-12.065000	405.932007
-2.341423	-12.065000	470.767120
-1.341423	-12.065000	409.990448
-0.341423	-12.065000	444.080048
0.658577	-12.065000	273.592407
1.658577	-12.065000	224.898514
2.658577	-12.065000	234.761642
3.658577	-12.065000	225.774872
4.658577	-12.065000	292.071594
5.658577	-12.065000	324.159271
6.658577	-12.065000	529.893677
7.658577	-12.065000	486.339752
8.658577	-12.065000	469.508301
9.658577	-12.065000	34.425953
10.658577	-12.065000	7.835706
11.658577	-12.065000	15.984833
12.658577	-12.065000	354.229065
13.658577	-12.065000	239.782562
14.658577	-12.065000	400.001648
15.658577	-12.065000	584.976379
16.658577	-12.065000	183.496811
17.658577	-12.065000	691.774597
18.658577	-12.065000	638.713501
19.658577	-12.065000	569.041870
20.658577	-12.065000	506.523071
21.658577	-12.065000	539.311829
22.658577	-12.065000	481.712769
23.658577	-12.065000	585.512939
24.658577	-12.065000	542.893188
-39.341423	-11.065000	747.066956
-38.341423	-11.065000	744.897217
-37.341423	-11.065000	767.588318
-36.341423	-11.065000	577.213928
-35.341423	-11.065000	980.528015
-34.341423	-11.065000	609.718262
-33.341423	-11.065000	646.545654
-32.341423	-11.065000	572.601807
-31.341423	-11.065000	608.281067
-30.341423	-11.065000	657.290833
-29.341423	-11.065000	728.125305
-28.341423	-11.065000	686.113525
-27.341423	-11.065000	574.193176
-26.341423	-11.065000	818.957092
-25.341423	-11.065000	573.269165
-24.341423	-11.065000	671.593262
-23.341423	-11.065000	609.831360
-22.341423	-11.065000	559.698669
-21.341423	-11.065000	211.942566
-20.341423	-11.065000	545.579346
-19.341423	-11.065000	469.152435
-18.341423	-11.065000	290.888153
-17.341423	-11.065000	205.099487
-16.341423	-11.065000	191.147522
-15.341423	-11.065000	384.589478
-14.341423	-11.065000	173.955856
-13.341423	-11.065000	124.304359
-12.341423	-11.065000	573.040161
-11.341423	-11.065000	427.484772
-10.341423	-11.065000	353.849030
-9.341423	-11.065000	156.650009
-8.341423	-11.065000	141.916107
-7.341423	-11.065000	319.604980
-6.341423	-11.065000	437.388916
-5.341423	-11.065000	231.877350
-4.341423	-11.065000	229.666321
-3.341423	-11.065000	223.404572
-2.341423	-11.065000	224.745316
-1.341423	-11.065000	339.124115
-0.341423	-11.065000	251.071594
0.658577	-11.065000	238.428162
1.658577	-11.065000	401.747375
2.658577	-11.065000	478.762970
3.658577	-11.065000	201.613708
4.658577	-11.065000	191.292725
5.658577	-11.065000	249.056259
6.658577	-11.065000	571.736450
7.658577	-11.065000	732.870361
8.658577	-11.065000	646.599548
9.658577	-11.065000	21.645279
10.658577	-11.065000	1.686654
11.658577	-11.065000	5.350896
12.658577	-11.065000	44.810970
13.658577	-11.065000	438.872162
14.658577	-11.065000	563.791504
15.658577	-11.065000	600.834839
16.658577	-11.065000	347.882050
17.658577	-11.065000	565.490906
18.658577	-11.065000	497.112122
19.658577	-11.065000	430.810608
20.658577	-11.065000	300.302551
21.658577	-11.065000	396.747528
22.658577	-11.065000	472.970825
23.658577	-11.065000	458.564331
24.658577	-11.065000	476.342285
-39.341423	-10.065000	705.971436
-38.341423	-10.065000	665.725342
-37.341423	-10.065000	703.303711
-36.341423	-10.065000	587.202209
-35.341423	-10.065000	629.480530
-34.341423	-10.065000	631.557007
-33.341423	-10.065000	668.017151
-32.341423	-10.065000	797.129089
-31.341423	-10.065000	735.936401
-30.341423	-10.065000	675.684753
-29.341423	-10.065000	732.059692
-28.341423	-10.065000	703.006653
-27.341423	-10.065000	737.421814
-26.341423	-10.065000	741.910583
-25.341423	-10.065000	498.766968
-24.341423	-10.065000	631.288269
-23.341423	-10.065000	582.587036
-22.341423	-10.065000	63.792366
-21.341423	-10.065000	443.871704
-20.341423	-10.065000	387.021454
-19.341423	-10.065000	198.861053
-18.341423	-10.065000	369.361389
-17.341423	-10.065000	389.675568
-16.341423	-10.065000	390.583801
-15.341423	-10.065000	476.596649
-14.341423	-10.065000	384.694763
-13.341423	-10.065000	176.530380
-12.341423	-10.065000	382.018646
-11.341423	-10.065000	311.890350
-10.341423	-10.065000	231.384842
-9.341423	-10.065000	36.113895
-8.341423	-10.065000	189.935135
-7.341423	-10.065000	139.071259
-6.341423	-10.065000	170.360626
-5.341423	-10.065000	164.512802
-4.341423	-10.065000	145.422424
-3.341423	-10.065000	119.398178
-2.341423	-10.065000	185.351196
-1.341423	-10.065000	253.083252
-0.341423	-10.065000	358.295410
0.658577	-10.065000	454.394196
1.658577	-10.065000	481.293121
2.658577	-10.065000	283.178284
3.658577	-10.065000	222.188858
4.658577	-10.065000	176.001205
5.658577	-10.065000	298.545227
6.658577	-10.065000	536.809021
7.658577	-10.065000	526.664490
8.658577	-10.065000	33.888462
9.658577	-10.065000	9.021104
10.658577	-10.065000	3.890246
11.658577	-10.065000	5.602630
12.658577	-10.065000	90.255135
13.658577	-10.065000	527.172241
14.658577	-10.065000	535.028381
15.658577	-10.065000	560.827209
16.658577	-10.065000	556.391785
17.658577	-10.065000	493.408936
18.658577	-10.065000	552.888306
19.658577	-10.065000	467.611359
20.658577	-10.065000	519.969421
21.658577	-10.065000	547.881165
22.658577	-10.065000	526.539551
23.658577	-10.065000	453.299988
24.658577	-10.065000	232.409470
-39.341423	-9.065000	687.280090
-38.341423	-9.065000	545.940430
-37.341423	-9.065000	579.301453
-36.341423	-9.065000	694.656006
-35.341423	-9.065000	760.607788
-34.341423	-9.065000	841.111206
-33.341423	-9.065000	756.050232
-32.341423	-9.065000	832.204163
-31.341423	-9.065000	745.929382
-30.341423	-9.065000	708.446289
-29.341423	-9.065000	717.693726
-28.341423	-9.065000	638.549500
-27.341423	-9.065000	734.462463
-26.341423	-9.065000	777.204468
-25.341423	-9.065000	329.553101
-24.341423	-9.065000	69.297386
-23.341423	-9.065000	33.817097
-22.341423	-9.065000	17.461103
-21.341423	-9.065000	31.849764
-20.341423	-9.065000	66.746887
-19.341423	-9.065000	379.385590
-18.341423	-9.065000	216.566147
-17.341423	-9.065000	313.541443
-16.341423	-9.065000	540.281616
-15.341423	-9.065000	872.329956
-14.341423	-9.065000	407.896698
-13.341423	-9.065000	254.245956
-12.341423	-9.065000	811.457458
-11.341423	-9.065000	774.470093
-10.341423	-9.065000	631.146118
-9.341423	-9.065000	211.052444
-8.341423	-9.065000	595.192017
-7.341423	-9.065000	263.249603
-6.341423	-9.065000	141.009888
-5.341423	-9.065000	113.426315
-4.341423	-9.065000	146.763565
-3.341423	-9.065000	156.944656
-2.341423	-9.065000	142.454361
-1.341423	-9.065000	241.089844
-0.341423	-9.065000	401.468475
0.658577	-9.065000	327.491852
1.658577	-9.065000	122.516724
2.658577	-9.065000	214.383759
3.658577	-9.065000	192.914200
4.658577	-9.065000	369.635193
5.658577	-9.065000	353.083527
6.658577	-9.065000	492.145721
7.658577	-9.065000	387.002472
8.658577	-9.065000	31.218081
9.658577	-9.065000	10.325966
10.658577	-9.065000	0.713060
11.658577	-9.065000	6.625438
12.658577	-9.065000	282.842224
13.658577	-9.065000	431.104980
14.658577	-9.065000	360.067413
15.658577	-9.065000	115.207481
16.658577	-9.065000	474.305725
17.658577	-9.065000	563.517029
18.658577	-9.065000	484.445160
19.658577	-9.065000	503.155060
20.658577	-9.065000	483.797150
21.658577	-9.065000	465.060455
22.658577	-9.065000	501.220612
23.658577	-9.065000	499.965393
24.658577	-9.065000	110.772148
-39.341423	-8.065000	668.562683
-38.341423	-8.065000	493.408600
-37.341423	-8.065000	628.644836
-36.341423	-8.065000	760.232727
-35.341423	-8.065000	767.265137
-34.341423	-8.065000	848.635498
-33.341423	-8.065000	819.284729
-32.341423	-8.065000	933.997620
-31.341423	-8.065000	613.852478
-30.341423	-8.065000	620.619141
-29.341423	-8.065000	585.827148
-28.341423	-8.065000	639.122681
-27.341423	-8.065000	707.820740
-26.341423	-8.065000	504.508423
-25.341423	-8.065000	702.720886
-24.341423	-8.065000	384.339539
-23.341423	-8.065000	29.384367
-22.341423	-8.065000	45.682503
-21.341423	-8.065000	400.270294
-20.341423	-8.065000	456.473480
-19.341423	-8.065000	424.032806
-18.341423	-8.065000	406.206268
-17.341423	-8.065000	827.528870
-16.341423	-8.065000	489.681824
-15.341423	-8.065000	459.989716
-14.341423	-8.065000	388.270172
-13.341423	-8.065000	351.449524
-12.341423	-8.065000	580.382996
-11.341423	-8.065000	438.477020
-10.341423	-8.065000	362.960327
-9.341423	-8.065000	591.331116
-8.341423	-8.065000	400.236572
-7.341423	-8.065000	164.671387
-6.341423	-8.065000	202.668488
-5.341423	-8.065000	246.301086
-4.341423	-8.065000	138.137985
-3.341423	-8.065000	150.789536
-2.341423	-8.065000	105.895813
-1.341423	-8.065000	100.475777
-0.341423	-8.065000	126.628883
0.658577	-8.065000	285.299957
1.658577	-8.065000	72.356651
2.658577	-8.065000	107.758018
3.658577	-8.065000	299.155701
4.658577	-8.065000	586.538330
5.658577	-8.065000	464.910706
6.658577	-8.065000	414.877106
7.658577	-8.065000	368.173065
8.658577	-8.065000	23.096882
9.658577	-8.065000	1.357255
10.658577	-8.065000	2.996205
11.658577	-8.065000	1.354721
12.658577	-8.065000	83.280083
13.658577	-8.065000	502.901245
14.658577	-8.065000	426.883881
15.658577	-8.065000	317.039490
16.658577	-8.065000	560.874023
17.658577	-8.065000	590.577454
18.658577	-8.065000	475.271027
19.658577	-8.065000	496.542786
20.658577	-8.065000	418.675079
21.658577	-8.065000	489.090332
22.658577	-8.065000	481.743683
23.658577	-8.065000	525.986694
24.658577	-8.065000	49.839184
-39.341423	-7.065000	654.330444
-38.341423	-7.065000	486.898407
-37.341423	-7.065000	681.107361
-36.341423	-7.065000	747.954224
-35.341423	-7.065000	819.431580
-34.341423	-7.065000	871.649719
-33.341423	-7.065000	883.081970
-32.341423	-7.065000	753.856079
-31.341423	-7.065000	679.118835
-30.341423	-7.065000	602.615234
-29.341423	-7.065000	602.625427
-28.341423	-7.065000	632.591492
-27.341423	-7.065000	270.817230
-26.341423	-7.065000	620.983032
-25.341423	-7.065000	641.167419
-24.341423	-7.065000	529.257263
-23.341423	-7.065000	304.455017
-22.341423	-7.065000	114.050636
-21.341423	-7.065000	505.881165
-20.341423	-7.065000	502.153900
-19.341423	-7.065000	488.012207
-18.341423	-7.065000	200.737915
-17.341423	-7.065000	586.185486
-16.341423	-7.065000	480.180115
-15.341423	-7.065000	454.516296
-14.341423	-7.065000	368.523468
-13.341423	-7.065000	325.691681
-12.341423	-7.065000	521.995056
-11.341423	-7.065000	394.158142
-10.341423	-7.065000	423.013519
-9.341423	-7.065000	597.148804
-8.341423	-7.065000	703.211975
-7.341423	-7.065000	48.455814
-6.341423	-7.065000	36.961452
-5.341423	-7.065000	24.671349
-4.341423	-7.065000	33.450089
-3.341423	-7.065000	273.318481
-2.341423	-7.065000	252.062683
-1.341423	-7.065000	23.891075
-0.341423	-7.065000	15.381531
0.658577	-7.065000	14.279092
1.658577	-7.065000	21.007526
2.658577	-7.065000	444.959808
3.658577	-7.065000	469.139038
4.658577	-7.065000	483.156555
5.658577	-7.065000	556.534241
6.658577	-7.065000	150.057938
7.658577	-7.065000	89.125282
8.658577	-7.065000	9.617140
9.658577	-7.065000	6.164050
10.658577	-7.065000	189.650772
11.658577	-7.065000	47.036953
12.658577	-7.065000	63.051071
13.658577	-7.065000	381.710236
14.658577	-7.065000	931.960938
15.658577	-7.065000	660.548035
16.658577	-7.065000	517.295837
17.658577	-7.065000	529.232971
18.658577	-7.065000	522.759033
19.658577	-7.065000	514.151855
20.658577	-7.065000	621.461487
21.658577	-7.065000	500.015320
22.658577	-7.065000	502.740723
23.658577	-7.065000	595.616089
24.658577	-7.065000	210.309799
-39.341423	-6.065000	536.657043
-38.341423	-6.065000	576.304504
-37.341423	-6.065000	691.311279
-36.341423	-6.065000	715.648987
-35.341423	-6.065000	696.147583
-34.341423	-6.065000	771.837952
-33.341423	-6.065000	790.300415
-32.341423	-6.065000	827.059875
-31.341423	-6.065000	619.667175
-30.341423	-6.065000	624.055420
-29.341423	-6.065000	638.077332
-28.341423	-6.065000	732.974426
-27.341423	-6.065000	293.972534
-26.341423	-6.065000	709.483093
-25.341423	-6.065000	713.078125
-24.341423	-6.065000	797.263367
-23.341423	-6.065000	587.016174
-22.341423	-6.065000	766.487915
-21.341423	-6.065000	627.272034
-20.341423	-6.065000	299.360626
-19.341423	-6.065000	19.027517
-18.341423	-6.065000	14.200768
-17.341423	-6.065000	135.613190
-16.341423	-6.065000	452.476257
-15.341423	-6.065000	623.429993
-14.341423	-6.065000	538.143921
-13.341423	-6.065000	399.892334
-12.341423	-6.065000	450.498138
-11.341423	-6.065000	763.992737
-10.341423	-6.065000	554.123779
-9.341423	-6.065000	606.779602
-8.341423	-6.065000	766.454102
-7.341423	-6.065000	553.117859
-6.341423	-6.065000	283.798981
-5.341423	-6.065000	45.947609
-4.341423	-6.065000	5.897069
-3.341423	-6.065000	46.202660
-2.341423	-6.065000	206.208511
-1.341423	-6.065000	38.766529
-0.341423	-6.065000	7.032911
0.658577	-6.065000	6.624116
1.658577	-6.065000	9.745731
2.658577	-6.065000	202.844269
3.658577	-6.065000	611.674255
4.658577	-6.065000	595.848083
5.658577	-6.065000	615.388367
6.658577	-6.065000	607.682251
7.658577	-6.065000	430.620270
8.658577	-6.065000	23.305281
9.658577	-6.065000	44.218727
10.658577	-6.065000	335.646332
11.658577	-6.065000	446.132355
12.658577	-6.065000	413.217072
13.658577	-6.065000	729.818176
14.658577	-6.065000	723.122314
15.658577	-6.065000	688.941345
16.658577	-6.065000	736.735474
17.658577	-6.065000	559.277405
18.658577	-6.065000	533.431396
19.658577	-6.065000	509.055603
20.658577	-6.065000	542.848450
21.658577	-6.065000	544.787415
22.658577	-6.065000	475.893097
23.658577	-6.065000	519.632568
24.658577	-6.065000	331.977814
-39.341423	-5.065000	57.716274
-38.341423	-5.065000	234.332169
-37.341423	-5.065000	612.417114
-36.341423	-5.065000	568.709290
-35.341423	-5.065000	521.137878
-34.341423	-5.065000	661.235657
-33.341423	-5.065000	840.968750
-32.341423	-5.065000	920.093628
-31.341423	-5.065000	836.968567
-30.341423	-5.065000	736.376648
-29.341423	-5.065000	667.487793
-28.341423	-5.065000	743.562012
-27.341423	-5.065000	844.932739
-26.341423	-5.065000	642.249268
-25.341423	-5.065000	760.376892
-24.341423	-5.065000	734.632690
-23.341423	-5.065000	545.089172
-22.341423	-5.065000	529.615601
-21.341423	-5.065000	596.461487
-20.341423	-5.065000	57.564121
-19.341423	-5.065000	16.843880
-18.341423	-5.065000	8.523133
-17.341423	-5.065000	34.887913
-16.341423	-5.065000	303.148376
-15.341423	-5.065000	462.899872
-14.341423	-5.065000	588.359680
-13.341423	-5.065000	649.388000
-12.341423	-5.065000	617.871277
-11.341423	-5.065000	774.928284
-10.341423	-5.065000	617.486755
-9.341423	-5.065000	780.737854
-8.341423	-5.065000	519.954773
-7.341423	-5.065000	548.842407
-6.341423	-5.065000	621.274597
-5.341423	-5.065000	367.812988
-4.341423	-5.065000	11.956798
-3.341423	-5.065000	3.277544
-2.341423	-5.065000	21.187349
-1.341423	-5.065000	81.791916
-0.341423	-5.065000	167.146637
0.658577	-5.065000	270.790985
1.658577	-5.065000	55.429207
2.658577	-5.065000	21.929312
3.658577	-5.065000	59.227573
4.658577	-5.065000	433.705109
5.658577	-5.065000	584.069946
6.658577	-5.065000	472.107727
7.658577	-5.065000	529.467896
8.658577	-5.065000	54.393288
9.658577	-5.065000	163.740738
10.658577	-5.065000	621.419983
11.658577	-5.065000	491.173859
12.658577	-5.065000	699.184875
13.658577	-5.065000	941.775635
14.658577	-5.065000	893.901550
15.658577	-5.065000	729.470276
16.658577	-5.065000	613.996155
17.658577	-5.065000	406.665771
18.658577	-5.065000	554.983032
19.658577	-5.065000	521.473694
20.658577	-5.065000	572.851379
21.658577	-5.065000	516.663330
22.658577	-5.065000	145.981689
23.658577	-5.065000	302.126740
24.658577	-5.065000	206.004044
-39.341423	-4.065000	5.877627
-38.341423	-4.065000	117.920647
-37.341423	-4.065000	750.206421
-36.341423	-4.065000	608.055603
-35.341423	-4.065000	726.795837
-34.341423	-4.065000	661.802490
-33.341423	-4.065000	798.775696
-32.341423	-4.065000	456.237885
-31.341423	-4.065000	303.403503
-30.341423	-4.065000	337.073181
-29.341423	-4.065000	150.205505
-28.341423	-4.065000	272.827454
-27.341423	-4.065000	879.391296
-26.341423	-4.065000	885.635437
-25.341423	-4.065000	822.606934
-24.341423	-4.065000	658.294189
-23.341423	-4.065000	344.900726
-22.341423	-4.065000	385.004395
-21.341423	-4.065000	785.773132
-20.341423	-4.065000	489.130737
-19.341423	-4.065000	214.041702
-18.341423	-4.065000	103.601799
-17.341423	-4.065000	55.118729
-16.341423	-4.065000	169.571106
-15.341423	-4.065000	506.027100
-14.341423	-4.065000	528.333801
-13.341423	-4.065000	818.630188
-12.341423	-4.065000	408.403717
-11.341423	-4.065000	442.602905
-10.341423	-4.065000	618.157349
-9.341423	-4.065000	544.553711
-8.341423	-4.065000	372.895325
-7.341423	-4.065000	439.201416
-6.341423	-4.065000	452.218445
-5.341423	-4.065000	333.835052
-4.341423	-4.065000	34.977753
-3.341423	-4.065000	7.202046
-2.341423	-4.065000	12.165057
-1.341423	-4.065000	62.120312
-0.341423	-4.065000	235.561447
0.658577	-4.065000	448.122131
1.658577	-4.065000	229.457367
2.658577	-4.065000	9.074586
3.658577	-4.065000	25.462912
4.658577	-4.065000	109.171791
5.658577	-4.065000	344.418304
6.658577	-4.065000	591.352356
7.658577	-4.065000	477.032867
8.658577	-4.065000	315.180725
9.658577	-4.065000	519.616455
10.658577	-4.065000	664.587402
11.658577	-4.065000	483.751251
12.658577	-4.065000	746.153992
13.658577	-4.065000	875.428223
14.658577	-4.065000	580.013306
15.658577	-4.065000	134.016968
16.658577	-4.065000	340.079712
17.658577	-4.065000	725.967590
18.658577	-4.065000	577.133972
19.658577	-4.065000	603.119507
20.658577	-4.065000	412.138550
21.658577	-4.065000	555.128601
22.658577	-4.065000	487.299866
23.658577	-4.065000	356.799988
24.658577	-4.065000	205.326584
-39.341423	-3.065000	3.178869
-38.341423	-3.065000	32.923817
-37.341423	-3.065000	294.791290
-36.341423	-3.065000	549.447205
-35.341423	-3.065000	754.870300
-34.341423	-3.065000	615.670837
-33.341423	-3.065000	518.482666
-32.341423	-3.065000	70.546829
-31.341423	-3.065000	133.819916
-30.341423	-3.065000	827.136597
-29.341423	-3.065000	70.245033
-28.341423	-3.065000	30.264719
-27.341423	-3.065000	215.145706
-26.341423	-3.065000	944.029358
-25.341423	-3.065000	748.593506
-24.341423	-3.065000	618.629211
-23.341423	-3.065000	603.645020
-22.341423	-3.065000	415.263092
-21.341423	-3.065000	763.556641
-20.341423	-3.065000	177.205032
-19.341423	-3.065000	553.520508
-18.341423	-3.065000	484.151459
-17.341423	-3.065000	451.644623
-16.341423	-3.065000	85.457153
-15.341423	-3.065000	425.538879
-14.341423	-3.065000	675.848816
-13.341423	-3.065000	509.636932
-12.341423	-3.065000	560.626099
-11.341423	-3.065000	394.283936
-10.341423	-3.065000	440.348877
-9.341423	-3.065000	415.787750
-8.341423	-3.065000	433.100311
-7.341423	-3.065000	249.993591
-6.341423	-3.065000	310.572754
-5.341423	-3.065000	456.537537
-4.341423	-3.065000	454.613953
-3.341423	-3.065000	112.473564
-2.341423	-3.065000	301.529083
-1.341423	-3.065000	677.846069
-0.341423	-3.065000	774.069885
0.658577	-3.065000	669.266357
1.658577	-3.065000	279.727570
2.658577	-3.065000	36.509743
3.658577	-3.065000	382.895111
4.658577	-3.065000	53.018940
5.658577	-3.065000	473.420166
6.658577	-3.065000	734.523010
7.658577	-3.065000	625.680481
8.658577	-3.065000	471.009277
9.658577	-3.065000	770.689087
10.658577	-3.065000	350.875031
11.658577	-3.065000	373.887421
12.658577	-3.065000	796.684021
13.658577	-3.065000	822.966980
14.658577	-3.065000	768.209595
15.658577	-3.065000	303.538574
16.658577	-3.065000	759.065125
17.658577	-3.065000	745.725586
18.658577	-3.065000	689.034546
19.658577	-3.065000	582.431274
20.658577	-3.065000	576.725281
21.658577	-3.065000	455.660797
22.658577	-3.065000	74.790215
23.658577	-3.065000	371.144012
24.658577	-3.065000	359.425232
-39.341423	-2.065000	17.200289
-38.341423	-2.065000	176.533142
-37.341423	-2.065000	431.945404
-36.341423	-2.065000	81.509438
-35.341423	-2.065000	109.221733
-34.341423	-2.065000	138.979294
-33.341423	-2.065000	52.253120
-32.341423	-2.065000	32.627636
-31.341423	-2.065000	211.150818
-30.341423	-2.065000	495.265076
-29.341423	-2.065000	23.144903
-28.341423	-2.065000	3.556918
-27.341423	-2.065000	77.898727
-26.341423	-2.065000	477.901123
-25.341423	-2.065000	615.900574
-24.341423	-2.065000	622.824280
-23.341423	-2.065000	1020.045044
-22.341423	-2.065000	544.048828
-21.341423	-2.065000	386.886780
-20.341423	-2.065000	236.446915
-19.341423	-2.065000	404.884430
-18.341423	-2.065000	48.789566
-17.341423	-2.065000	106.294258
-16.341423	-2.065000	435.386292
-15.341423	-2.065000	834.653748
-14.341423	-2.065000	607.824646
-13.341423	-2.065000	418.872040
-12.341423	-2.065000	499.119019
-11.341423	-2.065000	511.944366
-10.341423	-2.065000	563.796448
-9.341423	-2.065000	492.884949
-8.341423	-2.065000	379.376007
-7.341423	-2.065000	281.724213
-6.341423	-2.065000	378.016083
-5.341423	-2.065000	641.741577
-4.341423	-2.065000	349.711761
-3.341423	-2.065000	464.511353
-2.341423	-2.065000	499.368652
-1.341423	-2.065000	580.739685
-0.341423	-2.065000	785.363098
0.658577	-2.065000	826.072266
1.658577	-2.065000	405.697266
2.658577	-2.065000	69.414764
3.658577	-2.065000	200.794556
4.658577	-2.065000	96.822906
5.658577	-2.065000	496.328033
6.658577	-2.065000	989.624817
7.658577	-2.065000	641.734985
8.658577	-2.065000	552.708191
9.658577	-2.065000	311.586426
10.658577	-2.065000	531.855408
11.658577	-2.065000	538.403992
12.658577	-2.065000	770.571533
13.658577	-2.065000	736.402527
14.658577	-2.065000	669.409363
15.658577	-2.065000	954.968140
16.658577	-2.065000	734.544250
17.658577	-2.065000	654.078064
18.658577	-2.065000	369.878113
19.658577	-2.065000	672.036011
20.658577	-2.065000	585.294128
21.658577	-2.065000	38.743408
22.658577	-2.065000	59.773247
23.658577	-2.065000	348.452271
24.658577	-2.065000	395.697906
-39.341423	-1.065000	29.799358
-38.341423	-1.065000	52.121147
-37.341423	-1.065000	205.873489
-36.341423	-1.065000	108.835449
-35.341423	-1.065000	132.284149
-34.341423	-1.065000	122.712006
-33.341423	-1.065000	378.474762
-32.341423	-1.065000	292.915710
-31.341423	-1.065000	310.375366
-30.341423	-1.065000	173.872635
-29.341423	-1.065000	20.336336
-28.341423	-1.065000	4.096553
-27.341423	-1.065000	14.734303
-26.341423	-1.065000	332.021301
-25.341423	-1.065000	555.924683
-24.341423	-1.065000	698.556946
-23.341423	-1.065000	265.507813
-22.341423	-1.065000	464.102875
-21.341423	-1.065000	192.637634
-20.341423	-1.065000	110.822601
-19.341423	-1.065000	42.525433
-18.341423	-1.065000	97.950058
-17.341423	-1.065000	387.544342
-16.341423	-1.065000	515.292053
-15.341423	-1.065000	605.475037
-14.341423	-1.065000	693.363220
-13.341423	-1.065000	391.915100
-12.341423	-1.065000	414.445984
-11.341423	-1.065000	553.886536
-10.341423	-1.065000	601.995728
-9.341423	-1.065000	386.143127
-8.341423	-1.065000	486.665710
-7.341423	-1.065000	370.536163
-6.341423	-1.065000	392.046814
-5.341423	-1.065000	509.552979
-4.341423	-1.065000	413.083130
-3.341423	-1.065000	474.682404
-2.341423	-1.065000	520.970398
-1.341423	-1.065000	614.797363
-0.341423	-1.065000	696.080200
0.658577	-1.065000	584.790344
1.658577	-1.065000	837.094788
2.658577	-1.065000	500.123932
3.658577	-1.065000	252.802246
4.658577	-1.065000	427.873657
5.658577	-1.065000	595.186768
6.658577	-1.065000	203.031082
7.658577	-1.065000	454.370697
8.658577	-1.065000	168.113953
9.658577	-1.065000	464.615265
10.658577	-1.065000	550.610535
11.658577	-1.065000	546.190491
12.658577	-1.065000	774.603516
13.658577	-1.065000	503.260498
14.658577	-1.065000	624.267273
15.658577	-1.065000	698.747803
16.658577	-1.065000	621.237061
17.658577	-1.065000	537.999756
18.658577	-1.065000	147.843323
19.658577	-1.065000	717.377563
20.658577	-1.065000	226.712631
21.658577	-1.065000	429.224457
22.658577	-1.065000	216.590668
23.658577	-1.065000	307.433990
24.658577	-1.065000	339.763153
-39.341423	-0.065000	125.411041
-38.341423	-0.065000	120.666023
-37.341423	-0.065000	118.504021
-36.341423	-0.065000	137.636276
-35.341423	-0.065000	126.197540
-34.341423	-0.065000	203.505585
-33.341423	-0.065000	264.938751
-32.341423	-0.065000	160.848694
-31.341423	-0.065000	166.109375
-30.341423	-0.065000	160.292053
-29.341423	-0.065000	70.071358
-28.341423	-0.065000	13.924203
-27.341423	-0.065000	2.239707
-26.341423	-0.065000	101.043373
-25.341423	-0.065000	503.715363
-24.341423	-0.065000	619.379944
-23.341423	-0.065000	515.441895
-22.341423	-0.065000	100.114044
-21.341423	-0.065000	55.625866
-20.341423	-0.065000	114.309853
-19.341423	-0.065000	518.729797
-18.341423	-0.065000	538.773499
-17.341423	-0.065000	370.566864
-16.341423	-0.065000	519.094910
-15.341423	-0.065000	168.305725
-14.341423	-0.065000	557.604553
-13.341423	-0.065000	428.432678
-12.341423	-0.065000	536.634216
-11.341423	-0.065000	497.286072
-10.341423	-0.065000	525.368042
-9.341423	-0.065000	367.384857
-8.341423	-0.065000	529.497375
-7.341423	-0.065000	441.596008
-6.341423	-0.065000	509.684998
-5.341423	-0.065000	607.392212
-4.341423	-0.065000	697.336731
-3.341423	-0.065000	650.367737
-2.341423	-0.065000	604.633911
-1.341423	-0.065000	752.433655
-0.341423	-0.065000	663.096924
0.658577	-0.065000	645.972595
1.658577	-0.065000	620.453979
2.658577	-0.065000	373.470032
3.658577	-0.065000	537.760376
4.658577	-0.065000	527.249084
5.658577	-0.065000	685.585571
6.658577	-0.065000	211.487228
7.658577	-0.065000	431.488831
8.658577	-0.065000	344.214233
9.658577	-0.065000	647.125122
10.658577	-0.065000	506.456299
11.658577	-0.065000	813.432983
12.658577	-0.065000	681.087402
13.658577	-0.065000	854.572083
14.658577	-0.065000	743.391968
15.658577	-0.065000	372.687439
16.658577	-0.065000	458.555939
17.658577	-0.065000	542.073242
18.658577	-0.065000	62.325233
19.658577	-0.065000	83.389503
20.658577	-0.065000	425.457794
21.658577	-0.065000	553.262268
22.658577	-0.065000	710.036194
23.658577	-0.065000	343.528198
24.658577	-0.065000	317.177216
-39.341423	0.935000	124.211601
-38.341423	0.935000	119.729324
-37.341423	0.935000	124.529022
-36.341423	0.935000	126.780762
-35.341423	0.935000	175.248810
-34.341423	0.935000	261.585968
-33.341423	0.935000	293.439697
-32.341423	0.935000	254.149307
-31.341423	0.935000	338.817078
-30.341423	0.935000	134.619995
-29.341423	0.935000	25.805323
-28.341423	0.935000	5.193062
-27.341423	0.935000	23.945683
-26.341423	0.935000	93.688759
-25.341423	0.935000	643.824951
-24.341423	0.935000	421.648193
-23.341423	0.935000	872.022339
-22.341423	0.935000	568.952820
-21.341423	0.935000	365.302979
-20.341423	0.935000	202.437149
-19.341423	0.935000	635.262512
-18.341423	0.935000	379.192474
-17.341423	0.935000	445.828888
-16.341423	0.935000	336.756531
-15.341423	0.935000	151.649124
-14.341423	0.935000	693.792114
-13.341423	0.935000	519.590210
-12.341423	0.935000	635.271790
-11.341423	0.935000	517.896240
-10.341423	0.935000	557.182495
-9.341423	0.935000	521.191956
-8.341423	0.935000	446.205414
-7.341423	0.935000	417.513367
-6.341423	0.935000	483.723022
-5.341423	0.935000	721.537354
-4.341423	0.935000	795.980957
-3.341423	0.935000	280.016663
-2.341423	0.935000	848.025696
-1.341423	0.935000	737.262756
-0.341423	0.935000	740.837341
0.658577	0.935000	583.298157
1.658577	0.935000	230.288742
2.658577	0.935000	468.057343
3.658577	0.935000	548.037903
4.658577	0.935000	443.229706
5.658577	0.935000	532.676331
6.658577	0.935000	919.608215
7.658577	0.935000	916.220703
8.658577	0.935000	792.403259
9.658577	0.935000	626.750488
10.658577	0.935000	708.986084
11.658577	0.935000	893.365601
12.658577	0.935000	854.416748
13.658577	0.935000	794.295654
14.658577	0.935000	420.766602
15.658577	0.935000	408.816620
16.658577	0.935000	379.373138
17.658577	0.935000	445.002075
18.658577	0.935000	288.151917
19.658577	0.935000	430.662048
20.658577	0.935000	523.132690
21.658577	0.935000	527.846191
22.658577	0.935000	575.115112
23.658577	0.935000	695.836792
24.658577	0.935000	350.186035
-39.341423	1.935000	134.202957
-38.341423	1.935000	137.783203
-37.341423	1.935000	143.179611
-36.341423	1.935000	317.666382
-35.341423	1.935000	423.082458
-34.341423	1.935000	228.175644
-33.341423	1.935000	333.275360
-32.341423	1.935000	649.877319
-31.341423	1.935000	581.114441
-30.341423	1.935000	402.807831
-29.341423	1.935000	139.018677
-28.341423	1.935000	12.022367
-27.341423	1.935000	87.254036
-26.341423	1.935000	393.380890
-25.341423	1.935000	634.369629
-24.341423	1.935000	279.723602
-23.341423	1.935000	519.324341
-22.341423	1.935000	524.240967
-21.341423	1.935000	666.080627
-20.341423	1.935000	543.895996
-19.341423	1.935000	146.998795
-18.341423	1.935000	42.862354
-17.341423	1.935000	31.330284
-16.341423	1.935000	17.065493
-15.341423	1.935000	101.749367
-14.341423	1.935000	842.121643
-13.341423	1.935000	835.243591
-12.341423	1.935000	1066.540039
-11.341423	1.935000	496.884460
-10.341423	1.935000	529.542786
-9.341423	1.935000	415.406891
-8.341423	1.935000	351.390320
-7.341423	1.935000	458.819031
-6.341423	1.935000	570.354736
-5.341423	1.935000	724.175232
-4.341423	1.935000	674.461792
-3.341423	1.935000	779.496460
-2.341423	1.935000	573.805725
-1.341423	1.935000	632.129211
-0.341423	1.935000	592.974121
0.658577	1.935000	590.186890
1.658577	1.935000	202.513077
2.658577	1.935000	537.643311
3.658577	1.935000	318.081482
4.658577	1.935000	354.811707
5.658577	1.935000	621.457458
6.658577	1.935000	760.226563
7.658577	1.935000	538.651550
8.658577	1.935000	243.033920
9.658577	1.935000	637.769775
10.658577	1.935000	617.522095
11.658577	1.935000	600.325195
12.658577	1.935000	663.356750
13.658577	1.935000	806.490601
14.658577	1.935000	879.058716
15.658577	1.935000	525.859802
16.658577	1.935000	468.471313
17.658577	1.935000	504.387268
18.658577	1.935000	170.222565
19.658577	1.935000	276.947388
20.658577	1.935000	435.481079
21.658577	1.935000	437.362183
22.658577	1.935000	624.100830
23.658577	1.935000	700.960876
24.658577	1.935000	618.056885
-39.341423	2.935000	162.091370
-38.341423	2.935000	292.297760
-37.341423	2.935000	381.182129
-36.341423	2.935000	332.512848
-35.341423	2.935000	289.358826
-34.341423	2.935000	132.539169
-33.341423	2.935000	239.815186
-32.341423	2.935000	327.685181
-31.341423	2.935000	619.213257
-30.341423	2.935000	602.073792
-29.341423	2.935000	541.291321
-28.341423	2.935000	296.543274
-27.341423	2.935000	467.833740
-26.341423	2.935000	543.863586
-25.341423	2.935000	760.109314
-24.341423	2.935000	335.642395
-23.341423	2.935000	356.355042
-22.341423	2.935000	517.859070
-21.341423	2.935000	578.224060
-20.341423	2.935000	374.938812
-19.341423	2.935000	115.298668
-18.341423	2.935000	28.177734
-17.341423	2.935000	16.549589
-16.341423	2.935000	5.779406
-15.341423	2.935000	12.649156
-14.341423	2.935000	91.908844
-13.341423	2.935000	251.864334
-12.341423	2.935000	596.276001
-11.341423	2.935000	612.134033
-10.341423	2.935000	718.638489
-9.341423	2.935000	492.027405
-8.341423	2.935000	774.203125
-7.341423	2.935000	535.631042
-6.341423	2.935000	648.533997
-5.341423	2.935000	695.624451
-4.341423	2.935000	718.431641
-3.341423	2.935000	719.549011
-2.341423	2.935000	842.835449
-1.341423	2.935000	525.644165
-0.341423	2.935000	531.024353
0.658577	2.935000	609.000366
1.658577	2.935000	723.092041
2.658577	2.935000	540.940308
3.658577	2.935000	303.456879
4.658577	2.935000	447.448334
5.658577	2.935000	458.452911
6.658577	2.935000	55.549274
7.658577	2.935000	61.307251
8.658577	2.935000	549.083740
9.658577	2.935000	609.215454
10.658577	2.935000	669.080383
11.658577	2.935000	845.120605
12.658577	2.935000	538.376709
13.658577	2.935000	954.222229
14.658577	2.935000	856.004089
15.658577	2.935000	626.485413
16.658577	2.935000	495.601898
17.658577	2.935000	400.359619
18.658577	2.935000	147.150604
19.658577	2.935000	47.322720
20.658577	2.935000	187.451691
21.658577	2.935000	429.608978
22.658577	2.935000	569.998108
23.658577	2.935000	653.985229
24.658577	2.935000	310.614075
-39.341423	3.935000	499.295319
-38.341423	3.935000	467.330719
-37.341423	3.935000	483.626434
-36.341423	3.935000	693.179260
-35.341423	3.935000	585.732788
-34.341423	3.935000	173.175964
-33.341423	3.935000	160.263809
-32.341423	3.935000	368.040070
-31.341423	3.935000	629.418396
-30.341423	3.935000	686.785645
-29.341423	3.935000	657.509399
-28.341423	3.935000	764.677551
-27.341423	3.935000	704.912170
-26.341423	3.935000	803.695984
-25.341423	3.935000	789.721802
-24.341423	3.935000	316.316925
-23.341423	3.935000	290.922089
-22.341423	3.935000	436.880402
-21.341423	3.935000	571.395569
-20.341423	3.935000	630.171936
-19.341423	3.935000	221.409271
-18.341423	3.935000	427.584442
-17.341423	3.935000	381.238098
-16.341423	3.935000	51.632172
-15.341423	3.935000	105.443985
-14.341423	3.935000	33.588440
-13.341423	3.935000	41.421356
-12.341423	3.935000	626.757202
-11.341423	3.935000	855.829346
-10.341423	3.935000	946.353516
-9.341423	3.935000	741.523193
-8.341423	3.935000	517.552856
-7.341423	3.935000	534.022522
-6.341423	3.935000	272.430084
-5.341423	3.935000	884.923157
-4.341423	3.935000	113.947693
-3.341423	3.935000	513.819580
-2.341423	3.935000	735.999207
-1.341423	3.935000	757.737244
-0.341423	3.935000	746.706543
0.658577	3.935000	749.748840
1.658577	3.935000	726.815735
2.658577	3.935000	515.368225
3.658577	3.935000	368.123199
4.658577	3.935000	554.596741
5.658577	3.935000	797.933105
6.658577	3.935000	494.014862
7.658577	3.935000	347.578888
8.658577	3.935000	825.275757
9.658577	3.935000	702.859070
10.658577	3.935000	481.737244
11.658577	3.935000	625.783691
12.658577	3.935000	790.856323
13.658577	3.935000	901.175842
14.658577	3.935000	774.479248
15.658577	3.935000	739.016296
16.658577	3.935000	546.000732
17.658577	3.935000	425.909485
18.658577	3.935000	671.815857
19.658577	3.935000	745.054504
20.658577	3.935000	829.813416
21.658577	3.935000	634.887756
22.658577	3.935000	574.935364
23.658577	3.935000	445.666138
24.658577	3.935000	199.921234
-39.341423	4.935000	648.562378
-38.341423	4.935000	744.210693
-37.341423	4.935000	821.570862
-36.341423	4.935000	934.651794
-35.341423	4.935000	847.612976
-34.341423	4.935000	381.695770
-33.341423	4.935000	212.125229
-32.341423	4.935000	442.438904
-31.341423	4.935000	637.969482
-30.341423	4.935000	704.893799
-29.341423	4.935000	544.209961
-28.341423	4.935000	295.661682
-27.341423	4.935000	422.736145
-26.341423	4.935000	509.538086
-25.341423	4.935000	672.334045
-24.341423	4.935000	654.075500
-23.341423	4.935000	494.287415
-22.341423	4.935000	687.197510
-21.341423	4.935000	558.427490
-20.341423	4.935000	534.973328
-19.341423	4.935000	548.219666
-18.341423	4.935000	608.242554
-17.341423	4.935000	608.986633
-16.341423	4.935000	411.743408
-15.341423	4.935000	429.397949
-14.341423	4.935000	239.206635
-13.341423	4.935000	26.286131
-12.341423	4.935000	191.891739
-11.341423	4.935000	666.693054
-10.341423	4.935000	738.973816
-9.341423	4.935000	894.014160
-8.341423	4.935000	600.871704
-7.341423	4.935000	558.446777
-6.341423	4.935000	103.747856
-5.341423	4.935000	44.172520
-4.341423	4.935000	37.752911
-3.341423	4.935000	569.224426
-2.341423	4.935000	711.963867
-1.341423	4.935000	632.568848
-0.341423	4.935000	769.232666
0.658577	4.935000	738.123230
1.658577	4.935000	537.328979
2.658577	4.935000	400.832397
3.658577	4.935000	510.555267
4.658577	4.935000	297.802612
5.658577	4.935000	496.479828
6.658577	4.935000	845.780029
7.658577	4.935000	772.917358
8.658577	4.935000	860.992737
9.658577	4.935000	918.531738
10.658577	4.935000	466.057404
11.658577	4.935000	385.715881
12.658577	4.935000	557.414612
13.658577	4.935000	822.036072
14.658577	4.935000	893.774109
15.658577	4.935000	544.481384
16.658577	4.935000	760.180176
17.658577	4.935000	772.412109
18.658577	4.935000	782.789001
19.658577	4.935000	751.013916
20.658577	4.935000	758.514526
21.658577	4.935000	620.783936
22.658577	4.935000	657.546631
23.658577	4.935000	290.523895
24.658577	4.935000	204.206833
-39.341423	5.935000	814.640869
-38.341423	5.935000	671.017334
-37.341423	5.935000	807.317200
-36.341423	5.935000	716.006042
-35.341423	5.935000	653.250122
-34.341423	5.935000	560.175354
-33.341423	5.935000	289.537140
-32.341423	5.935000	447.846252
-31.341423	5.935000	180.390625
-30.341423	5.935000	89.013664
-29.341423	5.935000	116.786308
-28.341423	5.935000	21.537079
-27.341423	5.935000	86.156410
-26.341423	5.935000	620.955872
-25.341423	5.935000	611.876587
-24.341423	5.935000	475.109192
-23.341423	5.935000	677.165161
-22.341423	5.935000	335.069214
-21.341423	5.935000	134.601395
-20.341423	5.935000	195.419403
-19.341423	5.935000	740.846985
-18.341423	5.935000	531.350708
-17.341423	5.935000	485.948944
-16.341423	5.935000	533.963806
-15.341423	5.935000	701.436340
-14.341423	5.935000	538.954712
-13.341423	5.935000	75.325172
-12.341423	5.935000	118.983032
-11.341423	5.935000	714.513123
-10.341423	5.935000	654.979797
-9.341423	5.935000	971.007813
-8.341423	5.935000	689.675598
-7.341423	5.935000	356.782959
-6.341423	5.935000	643.133972
-5.341423	5.935000	35.544132
-4.341423	5.935000	65.392693
-3.341423	5.935000	540.131165
-2.341423	5.935000	671.523438
-1.341423	5.935000	669.309204
-0.341423	5.935000	699.524841
0.658577	5.935000	781.305237
1.658577	5.935000	688.019958
2.658577	5.935000	711.455688
3.658577	5.935000	381.289398
4.658577	5.935000	254.030350
5.658577	5.935000	324.569763
6.658577	5.935000	635.989807
7.658577	5.935000	624.717285
8.658577	5.935000	592.748779
9.658577	5.935000	864.100647
10.658577	5.935000	942.717651
11.658577	5.935000	838.861511
12.658577	5.935000	727.003174
13.658577	5.935000	779.287964
14.658577	5.935000	855.507629
15.658577	5.935000	733.593323
16.658577	5.935000	76.217628
17.658577	5.935000	190.790146
18.658577	5.935000	767.060303
19.658577	5.935000	556.159912
20.658577	5.935000	828.104614
21.658577	5.935000	901.440186
22.658577	5.935000	581.940796
23.658577	5.935000	329.966248
24.658577	5.935000	334.028320
-39.341423	6.935000	876.866943
-38.341423	6.935000	854.757019
-37.341423	6.935000	820.939941
-36.341423	6.935000	783.082703
-35.341423	6.935000	622.223267
-34.341423	6.935000	563.911011
-33.341423	6.935000	468.383301
-32.341423	6.935000	560.842651
-31.341423	6.935000	436.517670
-30.341423	6.935000	505.647369
-29.341423	6.935000	510.068359
-28.341423	6.935000	42.426296
-27.341423	6.935000	206.585281
-26.341423	6.935000	477.681122
-25.341423	6.935000	491.258698
-24.341423	6.935000	879.391602
-23.341423	6.935000	373.453491
-22.341423	6.935000	389.006897
-21.341423	6.935000	404.966187
-20.341423	6.935000	561.867798
-19.341423	6.935000	732.581787
-18.341423	6.935000	699.553589
-17.341423	6.935000	520.928406
-16.341423	6.935000	576.957214
-15.341423	6.935000	795.202393
-14.341423	6.935000	498.392731
-13.341423	6.935000	421.390717
-12.341423	6.935000	255.574646
-11.341423	6.935000	253.430115
-10.341423	6.935000	410.982849
-9.341423	6.935000	493.907104
-8.341423	6.935000	542.414795
-7.341423	6.935000	556.506592
-6.341423	6.935000	609.217224
-5.341423	6.935000	226.646973
-4.341423	6.935000	161.350525
-3.341423	6.935000	626.811218
-2.341423	6.935000	648.985962
-1.341423	6.935000	746.094666
-0.341423	6.935000	666.358521
0.658577	6.935000	732.219666
1.658577	6.935000	616.142761
2.658577	6.935000	494.792206
3.658577	6.935000	130.634766
4.658577	6.935000	176.077850
5.658577	6.935000	360.852539
6.658577	6.935000	681.797852
7.658577	6.935000	718.786438
8.658577	6.935000	588.991760
9.658577	6.935000	614.275757
10.658577	6.935000	782.006042
11.658577	6.935000	760.949463
12.658577	6.935000	802.769409
13.658577	6.935000	754.983582
14.658577	6.935000	107.698647
15.658577	6.935000	522.866577
16.658577	6.935000	260.121002
17.658577	6.935000	228.449051
18.658577	6.935000	684.112061
19.658577	6.935000	427.989868
20.658577	6.935000	879.866760
21.658577	6.935000	828.605530
22.658577	6.935000	249.353302
23.658577	6.935000	511.079620
24.658577	6.935000	344.928680
-39.341423	7.935000	918.326111
-38.341423	7.935000	833.760864
-37.341423	7.935000	874.762634
-36.341423	7.935000	810.136841
-35.341423	7.935000	798.034607
-34.341423	7.935000	621.455139
-33.341423	7.935000	516.496765
-32.341423	7.935000	537.763184
-31.341423	7.935000	491.964478
-30.341423	7.935000	882.649902
-29.341423	7.935000	757.031860
-28.341423	7.935000	311.248810
-27.341423	7.935000	548.269836
-26.341423	7.935000	590.442688
-25.341423	7.935000	624.694946
-24.341423	7.935000	535.815186
-23.341423	7.935000	438.096985
-22.341423	7.935000	373.689667
-21.341423	7.935000	402.236572
-20.341423	7.935000	534.629883
-19.341423	7.935000	384.217773
-18.341423	7.935000	714.320374
-17.341423	7.935000	264.565704
-16.341423	7.935000	630.386780
-15.341423	7.935000	862.281799
-14.341423	7.935000	407.032379
-13.341423	7.935000	643.115356
-12.341423	7.935000	615.629700
-11.341423	7.935000	308.923340
-10.341423	7.935000	314.912262
-9.341423	7.935000	338.267365
-8.341423	7.935000	383.383087
-7.341423	7.935000	383.460876
-6.341423	7.935000	488.385437
-5.341423	7.935000	736.463623
-4.341423	7.935000	327.308563
-3.341423	7.935000	612.285278
-2.341423	7.935000	641.742676
-1.341423	7.935000	716.745972
-0.341423	7.935000	673.608887
0.658577	7.935000	700.190063
1.658577	7.935000	735.689209
2.658577	7.935000	630.507202
3.658577	7.935000	506.175812
4.658577	7.935000	533.559753
5.658577	7.935000	411.606873
6.658577	7.935000	348.143585
7.658577	7.935000	454.117920
8.658577	7.935000	789.646118
9.658577	7.935000	700.898682
10.658577	7.935000	769.226135
11.658577	7.935000	691.561523
12.658577	7.935000	958.378906
13.658577	7.935000	549.675537
14.658577	7.935000	284.301514
15.658577	7.935000	406.310333
16.658577	7.935000	539.230225
17.658577	7.935000	532.610657
18.658577	7.935000	341.237244
19.658577	7.935000	41.177341
20.658577	7.935000	203.130219
21.658577	7.935000	676.024780
22.658577	7.935000	655.705566
23.658577	7.935000	538.898621
24.658577	7.935000	565.152222
-39.341423	8.935000	837.992310
-38.341423	8.935000	726.942322
-37.341423	8.935000	698.574768
-36.341423	8.935000	702.009338
-35.341423	8.935000	814.912109
-34.341423	8.935000	790.989502
-33.341423	8.935000	662.869995
-32.341423	8.935000	672.101257
-31.341423	8.935000	656.715454
-30.341423	8.935000	804.589233
-29.341423	8.935000	664.807007
-28.341423	8.935000	559.307556
-27.341423	8.935000	606.684082
-26.341423	8.935000	653.145325
-25.341423	8.935000	597.418091
-24.341423	8.935000	536.655579
-23.341423	8.935000	402.977081
-22.341423	8.935000	477.798096
-21.341423	8.935000	390.030212
-20.341423	8.935000	557.131775
-19.341423	8.935000	627.461121
-18.341423	8.935000	561.614746
-17.341423	8.935000	538.902344
-16.341423	8.935000	638.042786
-15.341423	8.935000	904.110779
-14.341423	8.935000	462.878693
-13.341423	8.935000	769.046692
-12.341423	8.935000	347.270996
-11.341423	8.935000	343.436859
-10.341423	8.935000	368.248230
-9.341423	8.935000	337.263092
-8.341423	8.935000	364.169617
-7.341423	8.935000	454.022736
-6.341423	8.935000	599.118591
-5.341423	8.935000	612.977234
-4.341423	8.935000	622.568726
-3.341423	8.935000	648.252869
-2.341423	8.935000	593.268250
-1.341423	8.935000	682.024597
-0.341423	8.935000	697.542603
0.658577	8.935000	631.956116
1.658577	8.935000	661.674988
2.658577	8.935000	412.256409
3.658577	8.935000	517.230103
4.658577	8.935000	743.899963
5.658577	8.935000	557.752258
6.658577	8.935000	450.667999
7.658577	8.935000	375.525238
8.658577	8.935000	426.243469
9.658577	8.935000	585.398132
10.658577	8.935000	611.469543
11.658577	8.935000	549.207642
12.658577	8.935000	753.117371
13.658577	8.935000	85.262321
14.658577	8.935000	328.697723
15.658577	8.935000	40.939644
16.658577	8.935000	64.291138
17.658577	8.935000	587.805237
18.658577	8.935000	36.308689
19.658577	8.935000	8.578027
20.658577	8.935000	13.026684
21.658577	8.935000	60.112438
22.658577	8.935000	42.605793
23.658577	8.935000	34.677906
24.658577	8.935000	334.303772
-39.341423	9.935000	701.169067
-38.341423	9.935000	645.859619
-37.341423	9.935000	588.282654
-36.341423	9.935000	613.928650
-35.341423	9.935000	722.981934
-34.341423	9.935000	720.835144
-33.341423	9.935000	596.878723
-32.341423	9.935000	716.062988
-31.341423	9.935000	752.813293
-30.341423	9.935000	510.744354
-29.341423	9.935000	1024.502075
-28.341423	9.935000	650.671509
-27.341423	9.935000	601.794678
-26.341423	9.935000	500.994781
-25.341423	9.935000	459.204956
-24.341423	9.935000	143.889023
-23.341423	9.935000	458.638489
-22.341423	9.935000	626.829712
-21.341423	9.935000	615.529907
-20.341423	9.935000	550.931274
-19.341423	9.935000	607.549194
-18.341423	9.935000	692.419800
-17.341423	9.935000	554.593445
-16.341423	9.935000	685.731812
-15.341423	9.935000	509.828705
-14.341423	9.935000	708.475159
-13.341423	9.935000	583.618530
-12.341423	9.935000	537.006531
-11.341423	9.935000	337.542053
-10.341423	9.935000	365.746674
-9.341423	9.935000	283.384155
-8.341423	9.935000	336.921204
-7.341423	9.935000	438.480011
-6.341423	9.935000	804.594971
-5.341423	9.935000	647.896545
-4.341423	9.935000	981.255432
-3.341423	9.935000	481.636108
-2.341423	9.935000	578.638367
-1.341423	9.935000	800.321960
-0.341423	9.935000	826.036011
0.658577	9.935000	746.052917
1.658577	9.935000	376.693939
2.658577	9.935000	576.670776
3.658577	9.935000	556.737305
4.658577	9.935000	302.086609
5.658577	9.935000	265.724518
6.658577	9.935000	325.672241
7.658577	9.935000	465.046722
8.658577	9.935000	422.915253
9.658577	9.935000	608.785278
10.658577	9.935000	560.373230
11.658577	9.935000	588.824707
12.658577	9.935000	586.208069
13.658577	9.935000	35.590225
14.658577	9.935000	12.100157
15.658577	9.935000	8.803123
16.658577	9.935000	11.786198
17.658577	9.935000	20.664419
18.658577	9.935000	11.132056
19.658577	9.935000	16.428236
20.658577	9.935000	96.990669
21.658577	9.935000	344.916809
22.658577	9.935000	157.526154
23.658577	9.935000	10.627489
24.658577	9.935000	16.037064
-39.341423	10.935000	515.305542
-38.341423	10.935000	530.980530
-37.341423	10.935000	588.156799
-36.341423	10.935000	671.881836
-35.341423	10.935000	662.427856
-34.341423	10.935000	594.052551
-33.341423	10.935000	468.760498
-32.341423	10.935000	600.666931
-31.341423	10.935000	803.560242
-30.341423	10.935000	690.609863
-29.341423	10.935000	654.177917
-28.341423	10.935000	642.932068
-27.341423	10.935000	322.290924
-26.341423	10.935000	460.429382
-25.341423	10.935000	99.086212
-24.341423	10.935000	15.890005
-23.341423	10.935000	58.163155
-22.341423	10.935000	567.395081
-21.341423	10.935000	312.846100
-20.341423	10.935000	361.255554
-19.341423	10.935000	715.958984
-18.341423	10.935000	557.708008
-17.341423	10.935000	516.492188
-16.341423	10.935000	603.144897
-15.341423	10.935000	704.719727
-14.341423	10.935000	477.482819
-13.341423	10.935000	623.618713
-12.341423	10.935000	317.717377
-11.341423	10.935000	290.425140
-10.341423	10.935000	312.817780
-9.341423	10.935000	393.488922
-8.341423	10.935000	391.497406
-7.341423	10.935000	519.687683
-6.341423	10.935000	641.640625
-5.341423	10.935000	731.045410
-4.341423	10.935000	602.469116
-3.341423	10.935000	229.337524
-2.341423	10.935000	555.516296
-1.341423	10.935000	1149.762451
-0.341423	10.935000	587.891663
0.658577	10.935000	719.057312
1.658577	10.935000	510.436829
2.658577	10.935000	588.374451
3.658577	10.935000	678.944214
4.658577	10.935000	400.984070
5.658577	10.935000	325.190002
6.658577	10.935000	399.724915
7.658577	10.935000	586.333679
8.658577	10.935000	129.599014
9.658577	10.935000	211.713348
10.658577	10.935000	146.732132
11.658577	10.935000	541.777527
12.658577	10.935000	437.800690
13.658577	10.935000	42.308468
14.658577	10.935000	3.332921
15.658577	10.935000	9.217952
16.658577	10.935000	0.000000
17.658577	10.935000	0.000000
18.658577	10.935000	6.859983
19.658577	10.935000	5.789682
20.658577	10.935000	283.125366
21.658577	10.935000	390.190857
22.658577	10.935000	267.075592
23.658577	10.935000	158.195557
24.658577	10.935000	142.511993
-39.341423	11.935000	746.394104
-38.341423	11.935000	563.851990
-37.341423	11.935000	580.844849
-36.341423	11.935000	604.266479
-35.341423	11.935000	571.399170
-34.341423	11.935000	503.991241
-33.341423	11.935000	673.915833
-32.341423	11.935000	520.923401
-31.341423	11.935000	775.538025
-30.341423	11.935000	773.476440
-29.341423	11.935000	765.882080
-28.341423	11.935000	660.580322
-27.341423	11.935000	114.441422
-26.341423	11.935000	450.422089
-25.341423	11.935000	51.777111
-24.341423	11.935000	31.592194
-23.341423	11.935000	183.561737
-22.341423	11.935000	575.801941
-21.341423	11.935000	275.148773
-20.341423	11.935000	349.750732
-19.341423	11.935000	753.467773
-18.341423	11.935000	480.850616
-17.341423	11.935000	500.540894
-16.341423	11.935000	581.496582
-15.341423	11.935000	1049.021362
-14.341423	11.935000	680.929199
-13.341423	11.935000	752.199890
-12.341423	11.935000	328.128387
-11.341423	11.935000	260.906952
-10.341423	11.935000	195.228394
-9.341423	11.935000	409.832977
-8.341423	11.935000	442.619659
-7.341423	11.935000	478.761810
-6.341423	11.935000	410.828674
-5.341423	11.935000	583.241150
-4.341423	11.935000	502.882263
-3.341423	11.935000	310.265839
-2.341423	11.935000	206.793549
-1.341423	11.935000	931.140137
-0.341423	11.935000	696.879211
0.658577	11.935000	683.678650
1.658577	11.935000	462.974487
2.658577	11.935000	419.579529
3.658577	11.935000	206.125946
4.658577	11.935000	198.416443
5.658577	11.935000	425.683014
6.658577	11.935000	578.680603
7.658577	11.935000	969.508118
8.658577	11.935000	588.902893
9.658577	11.935000	520.627808
10.658577	11.935000	624.587585
11.658577	11.935000	629.272278
12.658577	11.935000	583.031372
13.658577	11.935000	247.959030
14.658577	11.935000	7.345428
15.658577	11.935000	0.000000
16.658577	11.935000	0.005207
17.658577	11.935000	0.000000
18.658577	11.935000	0.000000
19.658577	11.935000	10.673328
20.658577	11.935000	137.175415
21.658577	11.935000	228.794479
22.658577	11.935000	343.622101
23.658577	11.935000	384.090363
24.658577	11.935000	328.358551
-39.341423	12.935000	546.848877
-38.341423	12.935000	656.716125
-37.341423	12.935000	564.697937
-36.341423	12.935000	572.696533
-35.341423	12.935000	573.600586
-34.341423	12.935000	625.634338
-33.341423	12.935000	634.394775
-32.341423	12.935000	522.769714
-31.341423	12.935000	625.232178
-30.341423	12.935000	806.076416
-29.341423	12.935000	749.271973
-28.341423	12.935000	390.098541
-27.341423	12.935000	231.584763
-26.341423	12.935000	138.111786
-25.341423	12.935000	26.667463
-24.341423	12.935000	184.449402
-23.341423	12.935000	674.458130
-22.341423	12.935000	455.268890
-21.341423	12.935000	422.234680
-20.341423	12.935000	569.920715
-19.341423	12.935000	583.193298
-18.341423	12.935000	668.364807
-17.341423	12.935000	540.600647
-16.341423	12.935000	536.448975
-15.341423	12.935000	722.545227
-14.341423	12.935000	792.566040
-13.341423	12.935000	647.054749
-12.341423	12.935000	362.493896
-11.341423	12.935000	289.199310
-10.341423	12.935000	241.614044
-9.341423	12.935000	341.250732
-8.341423	12.935000	488.994019
-7.341423	12.935000	526.647888
-6.341423	12.935000	64.252640
-5.341423	12.935000	389.479340
-4.341423	12.935000	729.302368
-3.341423	12.935000	784.082275
-2.341423	12.935000	577.208130
-1.341423	12.935000	712.124451
-0.341423	12.935000	346.248535
0.658577	12.935000	610.962280
1.658577	12.935000	354.057800
2.658577	12.935000	527.952820
3.658577	12.935000	248.238892
4.658577	12.935000	279.414337
5.658577	12.935000	336.510468
6.658577	12.935000	722.963135
7.658577	12.935000	651.223511
8.658577	12.935000	730.955872
9.658577	12.935000	764.433167
10.658577	12.935000	589.328186
11.658577	12.935000	743.144653
12.658577	12.935000	712.401611
13.658577	12.935000	121.083328
14.658577	12.935000	3.886598
15.658577	12.935000	2.291022
16.658577	12.935000	11.471045
17.658577	12.935000	7.561872
18.658577	12.935000	6.686042
19.658577	12.935000	1.811115
20.658577	12.935000	3.376478
21.658577	12.935000	14.070744
22.658577	12.935000	133.659470
23.658577	12.935000	307.736511
24.658577	12.935000	101.817177
-39.341423	13.935000	643.002197
-38.341423	13.935000	679.189758
-37.341423	13.935000	648.453369
-36.341423	13.935000	667.855042
-35.341423	13.935000	688.440918
-34.341423	13.935000	730.949341
-33.341423	13.935000	595.252747
-32.341423	13.935000	508.826294
-31.341423	13.935000	589.144043
-30.341423	13.935000	656.329651
-29.341423	13.935000	488.911194
-28.341423	13.935000	602.360657
-27.341423	13.935000	564.797241
-26.341423	13.935000	529.779297
-25.341423	13.935000	167.013611
-24.341423	13.935000	222.843048
-23.341423	13.935000	712.081848
-22.341423	13.935000	811.812439
-21.341423	13.935000	632.399292
-20.341423	13.935000	473.636414
-19.341423	13.935000	327.440155
-18.341423	13.935000	464.497925
-17.341423	13.935000	223.526932
-16.341423	13.935000	591.156372
-15.341423	13.935000	506.003571
-14.341423	13.935000	713.139771
-13.341423	13.935000	638.112732
-12.341423	13.935000	466.457214
-11.341423	13.935000	291.265167
-10.341423	13.935000	84.283974
-9.341423	13.935000	435.665741
-8.341423	13.935000	505.415009
-7.341423	13.935000	577.241028
-6.341423	13.935000	247.103210
-5.341423	13.935000	544.174500
-4.341423	13.935000	425.415466
-3.341423	13.935000	486.019501
-2.341423	13.935000	366.700348
-1.341423	13.935000	500.630768
-0.341423	13.935000	377.844849
0.658577	13.935000	603.282349
1.658577	13.935000	310.180054
2.658577	13.935000	500.454315
3.658577	13.935000	108.052673
4.658577	13.935000	10.778797
5.658577	13.935000	35.998241
6.658577	13.935000	300.956848
7.658577	13.935000	545.250671
8.658577	13.935000	360.704620
9.658577	13.935000	631.642151
10.658577	13.935000	696.011841
11.658577	13.935000	569.740112
12.658577	13.935000	622.544006
13.658577	13.935000	56.534866
14.658577	13.935000	3.921722
15.658577	13.935000	0.000000
16.658577	13.935000	0.000000
17.658577	13.935000	10.821562
18.658577	13.935000	39.151009
19.658577	13.935000	0.000000
20.658577	13.935000	1.807664
21.658577	13.935000	1.095379
22.658577	13.935000	5.233298
23.658577	13.935000	8.981633
24.658577	13.935000	9.182768
-39.341423	14.935000	866.019409
-38.341423	14.935000	860.398743
-37.341423	14.935000	807.000977
-36.341423	14.935000	752.582153
-35.341423	14.935000	745.798218
-34.341423	14.935000	644.925903
-33.341423	14.935000	617.696594
-32.341423	14.935000	604.600769
-31.341423	14.935000	614.286072
-30.341423	14.935000	488.640320
-29.341423	14.935000	267.556305
-28.341423	14.935000	576.451416
-27.341423	14.935000	535.366150
-26.341423	14.935000	560.587769
-25.341423	14.935000	502.485107
-24.341423	14.935000	154.340027
-23.341423	14.935000	138.078964
-22.341423	14.935000	334.250183
-21.341423	14.935000	645.651428
-20.341423	14.935000	489.824402
-19.341423	14.935000	401.310303
-18.341423	14.935000	351.459198
-17.341423	14.935000	496.306793
-16.341423	14.935000	652.764771
-15.341423	14.935000	491.507690
-14.341423	14.935000	303.780548
-13.341423	14.935000	467.280853
-12.341423	14.935000	424.769562
-11.341423	14.935000	157.802643
-10.341423	14.935000	12.323772
-9.341423	14.935000	45.460300
-8.341423	14.935000	298.000702
-7.341423	14.935000	676.180969
-6.341423	14.935000	859.741150
-5.341423	14.935000	536.531616
-4.341423	14.935000	513.602966
-3.341423	14.935000	283.683075
-2.341423	14.935000	28.072332
-1.341423	14.935000	536.672607
-0.341423	14.935000	723.276733
0.658577	14.935000	436.931427
1.658577	14.935000	543.164001
2.658577	14.935000	585.684814
3.658577	14.935000	159.073608
4.658577	14.935000	7.972125
5.658577	14.935000	95.707497
6.658577	14.935000	28.764019
7.658577	14.935000	70.973358
8.658577	14.935000	560.923096
9.658577	14.935000	752.533691
10.658577	14.935000	689.497437
11.658577	14.935000	608.648560
12.658577	14.935000	426.710480
13.658577	14.935000	45.354538
14.658577	14.935000	3.074924
15.658577	14.935000	0.000000
16.658577	14.935000	0.522048
17.658577	14.935000	0.785276
18.658577	14.935000	0.000000
19.658577	14.935000	25.203068
20.658577	14.935000	9.184657
21.658577	14.935000	24.007864
22.658577	14.935000	17.245890
23.658577	14.935000	0.000000
24.658577	14.935000	0.499346
-39.341423	15.935000	842.691650
-38.341423	15.935000	816.508850
-37.341423	15.935000	658.298218
-36.341423	15.935000	665.845520
-35.341423	15.935000	604.584106
-34.341423	15.935000	593.859497
-33.341423	15.935000	653.754333
-32.341423	15.935000	645.783630
-31.341423	15.935000	551.993774
-30.341423	15.935000	539.923218
-29.341423	15.935000	521.571960
-28.341423	15.935000	477.973297
-27.341423	15.935000	563.474182
-26.341423	15.935000	603.754517
-25.341423	15.935000	550.826782
-24.341423	15.935000	342.071747
-23.341423	15.935000	32.812763
-22.341423	15.935000	26.323280
-21.341423	15.935000	109.755913
-20.341423	15.935000	328.134064
-19.341423	15.935000	584.386536
-18.341423	15.935000	323.662262
-17.341423	15.935000	493.436127
-16.341423	15.935000	596.337280
-15.341423	15.935000	705.922913
-14.341423	15.935000	735.537048
-13.341423	15.935000	821.925964
-12.341423	15.935000	831.242004
-11.341423	15.935000	487.569855
-10.341423	15.935000	27.217176
-9.341423	15.935000	4.794757
-8.341423	15.935000	51.319866
-7.341423	15.935000	405.793274
-6.341423	15.935000	371.321655
-5.341423	15.935000	237.049225
-4.341423	15.935000	321.818329
-3.341423	15.935000	345.270966
-2.341423	15.935000	263.081146
-1.341423	15.935000	330.470978
-0.341423	15.935000	668.350830
0.658577	15.935000	475.368774
1.658577	15.935000	726.322571
2.658577	15.935000	798.354309
3.658577	15.935000	227.969025
4.658577	15.935000	6.788959
5.658577	15.935000	0.654571
6.658577	15.935000	21.441713
7.658577	15.935000	14.279527
8.658577	15.935000	50.203484
9.658577	15.935000	715.150146
10.658577	15.935000	636.947571
11.658577	15.935000	116.660202
12.658577	15.935000	265.499451
13.658577	15.935000	88.970436
14.658577	15.935000	2.204672
15.658577	15.935000	43.271957
16.658577	15.935000	0.058181
17.658577	15.935000	0.000000
18.658577	15.935000	0.000000
19.658577	15.935000	0.000000
20.658577	15.935000	1.095502
21.658577	15.935000	0.273735
22.658577	15.935000	1.229762
23.658577	15.935000	7.013010
24.658577	15.935000	51.566570
