#XList		#YList		#IList		
-39.341423	-21.065000	1583.566406
-38.341423	-21.065000	1582.871948
-37.341423	-21.065000	1582.145874
-36.341423	-21.065000	1583.356323
-35.341423	-21.065000	1583.883179
-34.341423	-21.065000	1583.682861
-33.341423	-21.065000	1580.836060
-32.341423	-21.065000	1583.693359
-31.341423	-21.065000	1570.000000
-30.341423	-21.065000	1580.939209
-29.341423	-21.065000	1570.000000
-28.341423	-21.065000	1585.185913
-27.341423	-21.065000	1570.000000
-26.341423	-21.065000	1584.928467
-25.341423	-21.065000	1583.759888
-24.341423	-21.065000	1582.689697
-23.341423	-21.065000	1584.451172
-22.341423	-21.065000	1582.045654
-21.341423	-21.065000	1580.970703
-20.341423	-21.065000	1576.175415
-19.341423	-21.065000	1590.393188
-18.341423	-21.065000	1591.088379
-17.341423	-21.065000	1570.000000
-16.341423	-21.065000	1570.000000
-15.341423	-21.065000	1570.000000
-14.341423	-21.065000	1570.000000
-13.341423	-21.065000	1570.000000
-12.341423	-21.065000	1570.000000
-11.341423	-21.065000	1570.000000
-10.341423	-21.065000	1600.000000
-9.341423	-21.065000	1594.815430
-8.341423	-21.065000	1584.737427
-7.341423	-21.065000	1584.418335
-6.341423	-21.065000	1585.313110
-5.341423	-21.065000	1585.179443
-4.341423	-21.065000	1582.514404
-3.341423	-21.065000	1585.606812
-2.341423	-21.065000	1583.521240
-1.341423	-21.065000	1583.226196
-0.341423	-21.065000	1582.501831
0.658577	-21.065000	1583.261963
1.658577	-21.065000	1584.694824
2.658577	-21.065000	1584.839966
3.658577	-21.065000	1584.608643
4.658577	-21.065000	1581.590942
5.658577	-21.065000	1581.401611
6.658577	-21.065000	1583.579468
7.658577	-21.065000	1598.062134
8.658577	-21.065000	1582.104980
9.658577	-21.065000	1583.105225
10.658577	-21.065000	1584.535400
11.658577	-21.065000	1585.317017
12.658577	-21.065000	1584.609985
13.658577	-21.065000	1585.950073
14.658577	-21.065000	1584.339966
15.658577	-21.065000	1581.444336
16.658577	-21.065000	1581.761353
17.658577	-21.065000	1583.937866
18.658577	-21.065000	1584.359375
19.658577	-21.065000	1570.000000
20.658577	-21.065000	1583.635620
21.658577	-21.065000	1587.666748
22.658577	-21.065000	1570.000000
23.658577	-21.065000	1570.000000
24.658577	-21.065000	1594.822876
-39.341423	-20.065000	1582.761719
-38.341423	-20.065000	1584.171753
-37.341423	-20.065000	1583.108643
-36.341423	-20.065000	1582.916748
-35.341423	-20.065000	1582.940063
-34.341423	-20.065000	1583.559204
-33.341423	-20.065000	1584.653564
-32.341423	-20.065000	1581.975830
-31.341423	-20.065000	1576.874878
-30.341423	-20.065000	1579.275757
-29.341423	-20.065000	1580.643921
-28.341423	-20.065000	1584.906250
-27.341423	-20.065000	1582.522583
-26.341423	-20.065000	1584.456421
-25.341423	-20.065000	1582.734497
-24.341423	-20.065000	1585.379150
-23.341423	-20.065000	1584.965576
-22.341423	-20.065000	1572.007080
-21.341423	-20.065000	1583.369629
-20.341423	-20.065000	1584.394653
-19.341423	-20.065000	1583.672852
-18.341423	-20.065000	1583.902710
-17.341423	-20.065000	1570.000000
-16.341423	-20.065000	1570.000000
-15.341423	-20.065000	1570.000000
-14.341423	-20.065000	1570.000000
-13.341423	-20.065000	1570.000000
-12.341423	-20.065000	1570.993774
-11.341423	-20.065000	1577.731567
-10.341423	-20.065000	1586.091675
-9.341423	-20.065000	1585.108276
-8.341423	-20.065000	1584.868164
-7.341423	-20.065000	1584.308594
-6.341423	-20.065000	1585.539429
-5.341423	-20.065000	1584.056763
-4.341423	-20.065000	1577.079956
-3.341423	-20.065000	1576.191528
-2.341423	-20.065000	1581.968018
-1.341423	-20.065000	1583.584717
-0.341423	-20.065000	1583.056885
0.658577	-20.065000	1582.746704
1.658577	-20.065000	1583.488281
2.658577	-20.065000	1583.411255
3.658577	-20.065000	1582.533569
4.658577	-20.065000	1582.067627
5.658577	-20.065000	1580.076050
6.658577	-20.065000	1588.918945
7.658577	-20.065000	1570.000000
8.658577	-20.065000	1586.038452
9.658577	-20.065000	1583.458130
10.658577	-20.065000	1583.205200
11.658577	-20.065000	1583.776855
12.658577	-20.065000	1585.722168
13.658577	-20.065000	1585.965942
14.658577	-20.065000	1585.814575
15.658577	-20.065000	1583.292847
16.658577	-20.065000	1582.145020
17.658577	-20.065000	1583.999146
18.658577	-20.065000	1582.544678
19.658577	-20.065000	1574.454102
20.658577	-20.065000	1570.000000
21.658577	-20.065000	1581.398682
22.658577	-20.065000	1576.859741
23.658577	-20.065000	1571.477661
24.658577	-20.065000	1570.000000
-39.341423	-19.065000	1582.392334
-38.341423	-19.065000	1583.833374
-37.341423	-19.065000	1583.393677
-36.341423	-19.065000	1583.224365
-35.341423	-19.065000	1583.610596
-34.341423	-19.065000	1583.629395
-33.341423	-19.065000	1585.278198
-32.341423	-19.065000	1586.913330
-31.341423	-19.065000	1570.000000
-30.341423	-19.065000	1570.000000
-29.341423	-19.065000	1585.196777
-28.341423	-19.065000	1584.819824
-27.341423	-19.065000	1584.746216
-26.341423	-19.065000	1585.299805
-25.341423	-19.065000	1583.542114
-24.341423	-19.065000	1583.404297
-23.341423	-19.065000	1583.920410
-22.341423	-19.065000	1584.687744
-21.341423	-19.065000	1586.263062
-20.341423	-19.065000	1584.423096
-19.341423	-19.065000	1582.182007
-18.341423	-19.065000	1584.787598
-17.341423	-19.065000	1571.124146
-16.341423	-19.065000	1570.000000
-15.341423	-19.065000	1570.000000
-14.341423	-19.065000	1570.000000
-13.341423	-19.065000	1570.000000
-12.341423	-19.065000	1574.932861
-11.341423	-19.065000	1576.528320
-10.341423	-19.065000	1584.213501
-9.341423	-19.065000	1584.762573
-8.341423	-19.065000	1584.560425
-7.341423	-19.065000	1585.601807
-6.341423	-19.065000	1584.737549
-5.341423	-19.065000	1583.851929
-4.341423	-19.065000	1584.962402
-3.341423	-19.065000	1588.087769
-2.341423	-19.065000	1583.905884
-1.341423	-19.065000	1583.306030
-0.341423	-19.065000	1583.799194
0.658577	-19.065000	1582.868408
1.658577	-19.065000	1582.690063
2.658577	-19.065000	1582.832153
3.658577	-19.065000	1582.355835
4.658577	-19.065000	1581.789795
5.658577	-19.065000	1580.695923
6.658577	-19.065000	1579.956421
7.658577	-19.065000	1576.141846
8.658577	-19.065000	1570.820557
9.658577	-19.065000	1584.006958
10.658577	-19.065000	1582.914185
11.658577	-19.065000	1583.891968
12.658577	-19.065000	1579.948242
13.658577	-19.065000	1585.438477
14.658577	-19.065000	1581.239624
15.658577	-19.065000	1577.594360
16.658577	-19.065000	1583.349854
17.658577	-19.065000	1581.508789
18.658577	-19.065000	1585.572510
19.658577	-19.065000	1583.347900
20.658577	-19.065000	1577.617065
21.658577	-19.065000	1576.512695
22.658577	-19.065000	1579.639282
23.658577	-19.065000	1573.232910
24.658577	-19.065000	1577.547363
-39.341423	-18.065000	1578.746582
-38.341423	-18.065000	1582.073486
-37.341423	-18.065000	1585.939697
-36.341423	-18.065000	1583.498657
-35.341423	-18.065000	1581.401367
-34.341423	-18.065000	1586.951050
-33.341423	-18.065000	1584.647217
-32.341423	-18.065000	1579.380615
-31.341423	-18.065000	1577.571899
-30.341423	-18.065000	1570.000000
-29.341423	-18.065000	1570.518311
-28.341423	-18.065000	1580.548706
-27.341423	-18.065000	1584.399292
-26.341423	-18.065000	1570.000000
-25.341423	-18.065000	1584.451050
-24.341423	-18.065000	1584.771240
-23.341423	-18.065000	1584.946289
-22.341423	-18.065000	1585.083008
-21.341423	-18.065000	1585.975220
-20.341423	-18.065000	1584.785522
-19.341423	-18.065000	1583.140259
-18.341423	-18.065000	1581.121094
-17.341423	-18.065000	1570.000000
-16.341423	-18.065000	1570.000000
-15.341423	-18.065000	1570.000000
-14.341423	-18.065000	1570.000000
-13.341423	-18.065000	1570.000000
-12.341423	-18.065000	1570.000000
-11.341423	-18.065000	1583.281250
-10.341423	-18.065000	1584.723633
-9.341423	-18.065000	1586.518677
-8.341423	-18.065000	1584.487793
-7.341423	-18.065000	1585.475098
-6.341423	-18.065000	1584.007080
-5.341423	-18.065000	1575.450562
-4.341423	-18.065000	1583.607300
-3.341423	-18.065000	1570.000000
-2.341423	-18.065000	1584.270996
-1.341423	-18.065000	1584.360596
-0.341423	-18.065000	1583.565674
0.658577	-18.065000	1583.032837
1.658577	-18.065000	1583.655273
2.658577	-18.065000	1583.817749
3.658577	-18.065000	1581.688965
4.658577	-18.065000	1583.395508
5.658577	-18.065000	1582.881592
6.658577	-18.065000	1570.168457
7.658577	-18.065000	1570.000000
8.658577	-18.065000	1570.000000
9.658577	-18.065000	1570.000000
10.658577	-18.065000	1570.267944
11.658577	-18.065000	1570.000000
12.658577	-18.065000	1574.563965
13.658577	-18.065000	1576.503906
14.658577	-18.065000	1583.199829
15.658577	-18.065000	1582.807861
16.658577	-18.065000	1583.652954
17.658577	-18.065000	1584.733521
18.658577	-18.065000	1584.157349
19.658577	-18.065000	1582.530396
20.658577	-18.065000	1582.214233
21.658577	-18.065000	1570.000000
22.658577	-18.065000	1578.988037
23.658577	-18.065000	1581.545654
24.658577	-18.065000	1571.027588
-39.341423	-17.065000	1587.046387
-38.341423	-17.065000	1579.158936
-37.341423	-17.065000	1570.000000
-36.341423	-17.065000	1578.388306
-35.341423	-17.065000	1583.027466
-34.341423	-17.065000	1576.256958
-33.341423	-17.065000	1584.891113
-32.341423	-17.065000	1585.713257
-31.341423	-17.065000	1585.266846
-30.341423	-17.065000	1571.258545
-29.341423	-17.065000	1570.000000
-28.341423	-17.065000	1583.523071
-27.341423	-17.065000	1584.681519
-26.341423	-17.065000	1584.197144
-25.341423	-17.065000	1582.686523
-24.341423	-17.065000	1584.268677
-23.341423	-17.065000	1583.970947
-22.341423	-17.065000	1582.485352
-21.341423	-17.065000	1581.827637
-20.341423	-17.065000	1579.772217
-19.341423	-17.065000	1570.000000
-18.341423	-17.065000	1576.343140
-17.341423	-17.065000	1570.000000
-16.341423	-17.065000	1570.000000
-15.341423	-17.065000	1570.000000
-14.341423	-17.065000	1570.000000
-13.341423	-17.065000	1570.000000
-12.341423	-17.065000	1570.000000
-11.341423	-17.065000	1580.576904
-10.341423	-17.065000	1584.635254
-9.341423	-17.065000	1584.736694
-8.341423	-17.065000	1582.076050
-7.341423	-17.065000	1579.713135
-6.341423	-17.065000	1570.000000
-5.341423	-17.065000	1575.780518
-4.341423	-17.065000	1579.407959
-3.341423	-17.065000	1584.879395
-2.341423	-17.065000	1584.458740
-1.341423	-17.065000	1578.719360
-0.341423	-17.065000	1582.904175
0.658577	-17.065000	1582.999634
1.658577	-17.065000	1582.859619
2.658577	-17.065000	1583.273926
3.658577	-17.065000	1583.014160
4.658577	-17.065000	1584.163818
5.658577	-17.065000	1583.632813
6.658577	-17.065000	1581.944580
7.658577	-17.065000	1578.370117
8.658577	-17.065000	1570.000000
9.658577	-17.065000	1570.000000
10.658577	-17.065000	1570.000000
11.658577	-17.065000	1570.000000
12.658577	-17.065000	1570.000000
13.658577	-17.065000	1578.573364
14.658577	-17.065000	1583.423340
15.658577	-17.065000	1578.742188
16.658577	-17.065000	1577.486694
17.658577	-17.065000	1582.958862
18.658577	-17.065000	1582.340454
19.658577	-17.065000	1581.659912
20.658577	-17.065000	1572.052368
21.658577	-17.065000	1573.546509
22.658577	-17.065000	1571.181763
23.658577	-17.065000	1583.724976
24.658577	-17.065000	1575.469238
-39.341423	-16.065000	1583.359009
-38.341423	-16.065000	1573.450806
-37.341423	-16.065000	1570.000000
-36.341423	-16.065000	1570.000000
-35.341423	-16.065000	1574.090332
-34.341423	-16.065000	1570.000000
-33.341423	-16.065000	1570.000000
-32.341423	-16.065000	1570.000000
-31.341423	-16.065000	1570.000000
-30.341423	-16.065000	1570.000000
-29.341423	-16.065000	1583.647583
-28.341423	-16.065000	1584.242676
-27.341423	-16.065000	1582.339355
-26.341423	-16.065000	1571.790039
-25.341423	-16.065000	1583.636963
-24.341423	-16.065000	1583.914307
-23.341423	-16.065000	1584.104004
-22.341423	-16.065000	1585.220337
-21.341423	-16.065000	1583.708862
-20.341423	-16.065000	1581.106079
-19.341423	-16.065000	1585.614380
-18.341423	-16.065000	1583.771729
-17.341423	-16.065000	1576.607910
-16.341423	-16.065000	1578.443970
-15.341423	-16.065000	1570.000000
-14.341423	-16.065000	1570.000000
-13.341423	-16.065000	1570.000000
-12.341423	-16.065000	1575.399292
-11.341423	-16.065000	1581.384033
-10.341423	-16.065000	1584.481689
-9.341423	-16.065000	1583.255127
-8.341423	-16.065000	1585.647461
-7.341423	-16.065000	1584.677490
-6.341423	-16.065000	1583.187134
-5.341423	-16.065000	1574.900146
-4.341423	-16.065000	1583.199219
-3.341423	-16.065000	1582.302368
-2.341423	-16.065000	1583.926025
-1.341423	-16.065000	1584.044189
-0.341423	-16.065000	1580.350708
0.658577	-16.065000	1580.721558
1.658577	-16.065000	1581.784546
2.658577	-16.065000	1581.945313
3.658577	-16.065000	1582.229614
4.658577	-16.065000	1581.869141
5.658577	-16.065000	1584.719727
6.658577	-16.065000	1582.574341
7.658577	-16.065000	1570.084595
8.658577	-16.065000	1570.000000
9.658577	-16.065000	1583.391235
10.658577	-16.065000	1570.000000
11.658577	-16.065000	1570.000000
12.658577	-16.065000	1578.981567
13.658577	-16.065000	1579.987671
14.658577	-16.065000	1582.967163
15.658577	-16.065000	1575.060913
16.658577	-16.065000	1572.154663
17.658577	-16.065000	1581.985596
18.658577	-16.065000	1581.196289
19.658577	-16.065000	1583.275146
20.658577	-16.065000	1576.981079
21.658577	-16.065000	1583.844360
22.658577	-16.065000	1578.826538
23.658577	-16.065000	1583.019043
24.658577	-16.065000	1577.512085
-39.341423	-15.065000	1582.868408
-38.341423	-15.065000	1583.237793
-37.341423	-15.065000	1572.160034
-36.341423	-15.065000	1570.000000
-35.341423	-15.065000	1570.000000
-34.341423	-15.065000	1570.000000
-33.341423	-15.065000	1570.000000
-32.341423	-15.065000	1570.000000
-31.341423	-15.065000	1570.000000
-30.341423	-15.065000	1570.000000
-29.341423	-15.065000	1582.438354
-28.341423	-15.065000	1582.424561
-27.341423	-15.065000	1570.000000
-26.341423	-15.065000	1582.795654
-25.341423	-15.065000	1583.880859
-24.341423	-15.065000	1570.927002
-23.341423	-15.065000	1584.623169
-22.341423	-15.065000	1585.444702
-21.341423	-15.065000	1583.168579
-20.341423	-15.065000	1579.963135
-19.341423	-15.065000	1588.994507
-18.341423	-15.065000	1574.327148
-17.341423	-15.065000	1570.000000
-16.341423	-15.065000	1570.000000
-15.341423	-15.065000	1570.000000
-14.341423	-15.065000	1570.000000
-13.341423	-15.065000	1570.000000
-12.341423	-15.065000	1579.828857
-11.341423	-15.065000	1583.456543
-10.341423	-15.065000	1585.395020
-9.341423	-15.065000	1586.834961
-8.341423	-15.065000	1586.119995
-7.341423	-15.065000	1586.143677
-6.341423	-15.065000	1585.007080
-5.341423	-15.065000	1584.226440
-4.341423	-15.065000	1582.687378
-3.341423	-15.065000	1583.425171
-2.341423	-15.065000	1582.878418
-1.341423	-15.065000	1584.261963
-0.341423	-15.065000	1583.451904
0.658577	-15.065000	1583.304199
1.658577	-15.065000	1583.080688
2.658577	-15.065000	1582.486816
3.658577	-15.065000	1582.524414
4.658577	-15.065000	1583.383301
5.658577	-15.065000	1575.200562
6.658577	-15.065000	1570.000000
7.658577	-15.065000	1570.000000
8.658577	-15.065000	1571.480225
9.658577	-15.065000	1570.000000
10.658577	-15.065000	1570.000000
11.658577	-15.065000	1576.505737
12.658577	-15.065000	1572.434692
13.658577	-15.065000	1583.706421
14.658577	-15.065000	1581.750977
15.658577	-15.065000	1576.188232
16.658577	-15.065000	1583.214966
17.658577	-15.065000	1582.850708
18.658577	-15.065000	1582.558472
19.658577	-15.065000	1581.321167
20.658577	-15.065000	1583.014893
21.658577	-15.065000	1584.466919
22.658577	-15.065000	1581.799438
23.658577	-15.065000	1580.355469
24.658577	-15.065000	1572.459717
-39.341423	-14.065000	1580.726807
-38.341423	-14.065000	1570.000000
-37.341423	-14.065000	1570.000000
-36.341423	-14.065000	1570.000000
-35.341423	-14.065000	1570.000000
-34.341423	-14.065000	1570.000000
-33.341423	-14.065000	1570.000000
-32.341423	-14.065000	1570.000000
-31.341423	-14.065000	1570.000000
-30.341423	-14.065000	1570.000000
-29.341423	-14.065000	1582.447388
-28.341423	-14.065000	1582.648682
-27.341423	-14.065000	1570.000000
-26.341423	-14.065000	1578.797974
-25.341423	-14.065000	1584.500488
-24.341423	-14.065000	1585.055054
-23.341423	-14.065000	1583.569946
-22.341423	-14.065000	1584.231445
-21.341423	-14.065000	1578.157959
-20.341423	-14.065000	1580.117065
-19.341423	-14.065000	1585.796387
-18.341423	-14.065000	1572.974487
-17.341423	-14.065000	1578.899536
-16.341423	-14.065000	1570.000000
-15.341423	-14.065000	1574.521118
-14.341423	-14.065000	1570.000000
-13.341423	-14.065000	1573.861694
-12.341423	-14.065000	1572.207642
-11.341423	-14.065000	1585.752563
-10.341423	-14.065000	1585.462402
-9.341423	-14.065000	1585.199463
-8.341423	-14.065000	1584.672119
-7.341423	-14.065000	1585.520752
-6.341423	-14.065000	1586.373169
-5.341423	-14.065000	1585.072510
-4.341423	-14.065000	1583.709961
-3.341423	-14.065000	1583.066772
-2.341423	-14.065000	1584.516113
-1.341423	-14.065000	1585.225952
-0.341423	-14.065000	1584.218384
0.658577	-14.065000	1583.556519
1.658577	-14.065000	1582.537720
2.658577	-14.065000	1583.173828
3.658577	-14.065000	1582.658813
4.658577	-14.065000	1582.850952
5.658577	-14.065000	1582.469971
6.658577	-14.065000	1571.471313
7.658577	-14.065000	1570.000000
8.658577	-14.065000	1583.926392
9.658577	-14.065000	1570.000000
10.658577	-14.065000	1572.124512
11.658577	-14.065000	1581.124512
12.658577	-14.065000	1578.309326
13.658577	-14.065000	1579.656738
14.658577	-14.065000	1582.122925
15.658577	-14.065000	1583.589722
16.658577	-14.065000	1585.884888
17.658577	-14.065000	1586.873779
18.658577	-14.065000	1584.411011
19.658577	-14.065000	1583.227905
20.658577	-14.065000	1584.082397
21.658577	-14.065000	1583.694214
22.658577	-14.065000	1584.274902
23.658577	-14.065000	1582.686157
24.658577	-14.065000	1583.640259
-39.341423	-13.065000	1570.000000
-38.341423	-13.065000	1570.000000
-37.341423	-13.065000	1570.000000
-36.341423	-13.065000	1570.000000
-35.341423	-13.065000	1570.000000
-34.341423	-13.065000	1570.000000
-33.341423	-13.065000	1570.000000
-32.341423	-13.065000	1570.000000
-31.341423	-13.065000	1570.000000
-30.341423	-13.065000	1570.000000
-29.341423	-13.065000	1570.000000
-28.341423	-13.065000	1570.000000
-27.341423	-13.065000	1577.600586
-26.341423	-13.065000	1582.079468
-25.341423	-13.065000	1583.616211
-24.341423	-13.065000	1584.256348
-23.341423	-13.065000	1584.652466
-22.341423	-13.065000	1570.000000
-21.341423	-13.065000	1582.027588
-20.341423	-13.065000	1583.007324
-19.341423	-13.065000	1583.334106
-18.341423	-13.065000	1582.281616
-17.341423	-13.065000	1581.678833
-16.341423	-13.065000	1581.225464
-15.341423	-13.065000	1582.801758
-14.341423	-13.065000	1581.925903
-13.341423	-13.065000	1582.466431
-12.341423	-13.065000	1585.481812
-11.341423	-13.065000	1586.944702
-10.341423	-13.065000	1586.261597
-9.341423	-13.065000	1585.365479
-8.341423	-13.065000	1585.473267
-7.341423	-13.065000	1585.464111
-6.341423	-13.065000	1585.260498
-5.341423	-13.065000	1584.791748
-4.341423	-13.065000	1582.972290
-3.341423	-13.065000	1584.191772
-2.341423	-13.065000	1584.587402
-1.341423	-13.065000	1582.442017
-0.341423	-13.065000	1581.966187
0.658577	-13.065000	1583.532837
1.658577	-13.065000	1582.356567
2.658577	-13.065000	1583.338013
3.658577	-13.065000	1582.397217
4.658577	-13.065000	1581.798950
5.658577	-13.065000	1581.775879
6.658577	-13.065000	1582.450928
7.658577	-13.065000	1570.000000
8.658577	-13.065000	1570.794312
9.658577	-13.065000	1572.454712
10.658577	-13.065000	1581.137451
11.658577	-13.065000	1585.562012
12.658577	-13.065000	1584.825684
13.658577	-13.065000	1581.660034
14.658577	-13.065000	1582.674805
15.658577	-13.065000	1570.000000
16.658577	-13.065000	1573.681274
17.658577	-13.065000	1575.449829
18.658577	-13.065000	1583.836304
19.658577	-13.065000	1583.933716
20.658577	-13.065000	1583.128784
21.658577	-13.065000	1584.266479
22.658577	-13.065000	1583.883057
23.658577	-13.065000	1584.454590
24.658577	-13.065000	1582.302734
-39.341423	-12.065000	1570.000000
-38.341423	-12.065000	1570.000000
-37.341423	-12.065000	1570.000000
-36.341423	-12.065000	1570.000000
-35.341423	-12.065000	1570.000000
-34.341423	-12.065000	1570.000000
-33.341423	-12.065000	1570.000000
-32.341423	-12.065000	1570.000000
-31.341423	-12.065000	1570.000000
-30.341423	-12.065000	1570.000000
-29.341423	-12.065000	1570.000000
-28.341423	-12.065000	1570.000000
-27.341423	-12.065000	1581.406860
-26.341423	-12.065000	1570.000000
-25.341423	-12.065000	1579.573120
-24.341423	-12.065000	1570.000000
-23.341423	-12.065000	1582.444946
-22.341423	-12.065000	1570.000000
-21.341423	-12.065000	1582.072266
-20.341423	-12.065000	1581.895996
-19.341423	-12.065000	1582.835449
-18.341423	-12.065000	1581.728882
-17.341423	-12.065000	1580.987305
-16.341423	-12.065000	1583.456177
-15.341423	-12.065000	1582.745239
-14.341423	-12.065000	1584.618164
-13.341423	-12.065000	1582.033813
-12.341423	-12.065000	1585.671753
-11.341423	-12.065000	1585.810303
-10.341423	-12.065000	1586.209229
-9.341423	-12.065000	1586.052246
-8.341423	-12.065000	1584.691284
-7.341423	-12.065000	1582.353149
-6.341423	-12.065000	1583.498047
-5.341423	-12.065000	1582.474731
-4.341423	-12.065000	1584.550903
-3.341423	-12.065000	1583.229858
-2.341423	-12.065000	1582.593506
-1.341423	-12.065000	1582.933350
-0.341423	-12.065000	1583.518921
0.658577	-12.065000	1582.253906
1.658577	-12.065000	1584.579712
2.658577	-12.065000	1582.932495
3.658577	-12.065000	1582.441772
4.658577	-12.065000	1581.229126
5.658577	-12.065000	1583.220825
6.658577	-12.065000	1582.877075
7.658577	-12.065000	1579.338623
8.658577	-12.065000	1582.334106
9.658577	-12.065000	1582.168823
10.658577	-12.065000	1570.000000
11.658577	-12.065000	1591.564941
12.658577	-12.065000	1584.658203
13.658577	-12.065000	1580.521851
14.658577	-12.065000	1584.727783
15.658577	-12.065000	1584.816162
16.658577	-12.065000	1570.000000
17.658577	-12.065000	1583.819458
18.658577	-12.065000	1583.986328
19.658577	-12.065000	1583.865601
20.658577	-12.065000	1583.179810
21.658577	-12.065000	1583.213867
22.658577	-12.065000	1583.606934
23.658577	-12.065000	1583.868652
24.658577	-12.065000	1582.697754
-39.341423	-11.065000	1570.000000
-38.341423	-11.065000	1570.000000
-37.341423	-11.065000	1570.000000
-36.341423	-11.065000	1570.000000
-35.341423	-11.065000	1584.246094
-34.341423	-11.065000	1570.000000
-33.341423	-11.065000	1570.000000
-32.341423	-11.065000	1570.000000
-31.341423	-11.065000	1570.000000
-30.341423	-11.065000	1570.000000
-29.341423	-11.065000	1570.000000
-28.341423	-11.065000	1570.000000
-27.341423	-11.065000	1570.000000
-26.341423	-11.065000	1573.516724
-25.341423	-11.065000	1576.746094
-24.341423	-11.065000	1582.204712
-23.341423	-11.065000	1582.230591
-22.341423	-11.065000	1583.544067
-21.341423	-11.065000	1581.342773
-20.341423	-11.065000	1582.396606
-19.341423	-11.065000	1582.626099
-18.341423	-11.065000	1583.747925
-17.341423	-11.065000	1582.503296
-16.341423	-11.065000	1583.486938
-15.341423	-11.065000	1582.938477
-14.341423	-11.065000	1579.208008
-13.341423	-11.065000	1586.374634
-12.341423	-11.065000	1585.726196
-11.341423	-11.065000	1585.855225
-10.341423	-11.065000	1585.894409
-9.341423	-11.065000	1585.288086
-8.341423	-11.065000	1582.636841
-7.341423	-11.065000	1582.103638
-6.341423	-11.065000	1582.935913
-5.341423	-11.065000	1582.171021
-4.341423	-11.065000	1584.538086
-3.341423	-11.065000	1583.110352
-2.341423	-11.065000	1583.496582
-1.341423	-11.065000	1581.914673
-0.341423	-11.065000	1582.757935
0.658577	-11.065000	1581.602905
1.658577	-11.065000	1582.698364
2.658577	-11.065000	1584.404785
3.658577	-11.065000	1581.556763
4.658577	-11.065000	1581.838989
5.658577	-11.065000	1582.637085
6.658577	-11.065000	1582.077637
7.658577	-11.065000	1583.923706
8.658577	-11.065000	1585.618286
9.658577	-11.065000	1581.533081
10.658577	-11.065000	1600.000000
11.658577	-11.065000	1570.000000
12.658577	-11.065000	1584.498657
13.658577	-11.065000	1583.891968
14.658577	-11.065000	1585.215942
15.658577	-11.065000	1584.369629
16.658577	-11.065000	1583.956299
17.658577	-11.065000	1583.287598
18.658577	-11.065000	1582.552734
19.658577	-11.065000	1582.026245
20.658577	-11.065000	1581.757568
21.658577	-11.065000	1582.838623
22.658577	-11.065000	1582.683105
23.658577	-11.065000	1583.416870
24.658577	-11.065000	1583.376465
-39.341423	-10.065000	1570.000000
-38.341423	-10.065000	1570.000000
-37.341423	-10.065000	1570.000000
-36.341423	-10.065000	1570.000000
-35.341423	-10.065000	1570.000000
-34.341423	-10.065000	1570.000000
-33.341423	-10.065000	1570.000000
-32.341423	-10.065000	1570.000000
-31.341423	-10.065000	1570.000000
-30.341423	-10.065000	1570.000000
-29.341423	-10.065000	1570.000000
-28.341423	-10.065000	1570.000000
-27.341423	-10.065000	1570.000000
-26.341423	-10.065000	1573.519287
-25.341423	-10.065000	1572.907471
-24.341423	-10.065000	1582.954590
-23.341423	-10.065000	1584.590820
-22.341423	-10.065000	1586.098022
-21.341423	-10.065000	1581.226685
-20.341423	-10.065000	1580.922852
-19.341423	-10.065000	1585.536865
-18.341423	-10.065000	1583.989746
-17.341423	-10.065000	1585.385620
-16.341423	-10.065000	1584.088013
-15.341423	-10.065000	1582.382446
-14.341423	-10.065000	1573.427979
-13.341423	-10.065000	1579.592407
-12.341423	-10.065000	1570.000000
-11.341423	-10.065000	1570.000000
-10.341423	-10.065000	1570.137329
-9.341423	-10.065000	1585.130127
-8.341423	-10.065000	1581.736084
-7.341423	-10.065000	1582.415527
-6.341423	-10.065000	1581.702393
-5.341423	-10.065000	1581.697998
-4.341423	-10.065000	1583.638550
-3.341423	-10.065000	1583.176270
-2.341423	-10.065000	1582.996948
-1.341423	-10.065000	1582.869995
-0.341423	-10.065000	1581.538818
0.658577	-10.065000	1580.484985
1.658577	-10.065000	1582.896484
2.658577	-10.065000	1581.984009
3.658577	-10.065000	1581.466553
4.658577	-10.065000	1582.256836
5.658577	-10.065000	1583.401611
6.658577	-10.065000	1578.702393
7.658577	-10.065000	1577.449463
8.658577	-10.065000	1571.599854
9.658577	-10.065000	1581.364136
10.658577	-10.065000	1600.000000
11.658577	-10.065000	1586.275269
12.658577	-10.065000	1583.446411
13.658577	-10.065000	1582.296875
14.658577	-10.065000	1581.701660
15.658577	-10.065000	1583.173828
16.658577	-10.065000	1584.712402
17.658577	-10.065000	1582.639893
18.658577	-10.065000	1583.440674
19.658577	-10.065000	1584.173828
20.658577	-10.065000	1583.744385
21.658577	-10.065000	1583.310547
22.658577	-10.065000	1582.715942
23.658577	-10.065000	1582.528809
24.658577	-10.065000	1583.429932
-39.341423	-9.065000	1570.000000
-38.341423	-9.065000	1570.000000
-37.341423	-9.065000	1570.000000
-36.341423	-9.065000	1570.000000
-35.341423	-9.065000	1570.000000
-34.341423	-9.065000	1570.000000
-33.341423	-9.065000	1570.000000
-32.341423	-9.065000	1570.000000
-31.341423	-9.065000	1570.000000
-30.341423	-9.065000	1570.000000
-29.341423	-9.065000	1570.000000
-28.341423	-9.065000	1570.000000
-27.341423	-9.065000	1570.000000
-26.341423	-9.065000	1578.620117
-25.341423	-9.065000	1578.204346
-24.341423	-9.065000	1584.025879
-23.341423	-9.065000	1586.466553
-22.341423	-9.065000	1594.241943
-21.341423	-9.065000	1586.051758
-20.341423	-9.065000	1584.355225
-19.341423	-9.065000	1583.948853
-18.341423	-9.065000	1584.182007
-17.341423	-9.065000	1585.013550
-16.341423	-9.065000	1580.312866
-15.341423	-9.065000	1586.905518
-14.341423	-9.065000	1570.000000
-13.341423	-9.065000	1570.000000
-12.341423	-9.065000	1585.906616
-11.341423	-9.065000	1570.000000
-10.341423	-9.065000	1570.000000
-9.341423	-9.065000	1570.000000
-8.341423	-9.065000	1577.158936
-7.341423	-9.065000	1582.721191
-6.341423	-9.065000	1581.697510
-5.341423	-9.065000	1581.770264
-4.341423	-9.065000	1582.322021
-3.341423	-9.065000	1582.437988
-2.341423	-9.065000	1582.184814
-1.341423	-9.065000	1584.480591
-0.341423	-9.065000	1581.666504
0.658577	-9.065000	1579.437012
1.658577	-9.065000	1582.682495
2.658577	-9.065000	1581.378052
3.658577	-9.065000	1581.349976
4.658577	-9.065000	1581.879150
5.658577	-9.065000	1570.892334
6.658577	-9.065000	1578.035400
7.658577	-9.065000	1570.000000
8.658577	-9.065000	1587.171387
9.658577	-9.065000	1572.473511
10.658577	-9.065000	1600.000000
11.658577	-9.065000	1577.865356
12.658577	-9.065000	1582.010376
13.658577	-9.065000	1581.783081
14.658577	-9.065000	1581.706787
15.658577	-9.065000	1582.314331
16.658577	-9.065000	1583.232544
17.658577	-9.065000	1584.327881
18.658577	-9.065000	1583.306152
19.658577	-9.065000	1583.633667
20.658577	-9.065000	1583.029053
21.658577	-9.065000	1582.779053
22.658577	-9.065000	1582.644775
23.658577	-9.065000	1582.564209
24.658577	-9.065000	1579.523438
-39.341423	-8.065000	1570.000000
-38.341423	-8.065000	1570.000000
-37.341423	-8.065000	1570.000000
-36.341423	-8.065000	1570.000000
-35.341423	-8.065000	1570.000000
-34.341423	-8.065000	1570.000000
-33.341423	-8.065000	1570.000000
-32.341423	-8.065000	1570.000000
-31.341423	-8.065000	1570.000000
-30.341423	-8.065000	1570.000000
-29.341423	-8.065000	1570.000000
-28.341423	-8.065000	1570.000000
-27.341423	-8.065000	1570.000000
-26.341423	-8.065000	1572.096436
-25.341423	-8.065000	1575.836426
-24.341423	-8.065000	1582.437134
-23.341423	-8.065000	1581.675903
-22.341423	-8.065000	1580.744751
-21.341423	-8.065000	1581.965576
-20.341423	-8.065000	1581.245117
-19.341423	-8.065000	1583.407349
-18.341423	-8.065000	1582.462280
-17.341423	-8.065000	1582.555298
-16.341423	-8.065000	1572.477539
-15.341423	-8.065000	1583.348877
-14.341423	-8.065000	1579.758789
-13.341423	-8.065000	1570.000000
-12.341423	-8.065000	1581.923096
-11.341423	-8.065000	1570.000000
-10.341423	-8.065000	1570.000000
-9.341423	-8.065000	1570.000000
-8.341423	-8.065000	1570.000000
-7.341423	-8.065000	1580.987793
-6.341423	-8.065000	1581.618164
-5.341423	-8.065000	1581.402954
-4.341423	-8.065000	1581.535278
-3.341423	-8.065000	1581.285522
-2.341423	-8.065000	1582.490723
-1.341423	-8.065000	1584.554932
-0.341423	-8.065000	1582.347534
0.658577	-8.065000	1581.515259
1.658577	-8.065000	1581.609619
2.658577	-8.065000	1582.732666
3.658577	-8.065000	1584.040283
4.658577	-8.065000	1583.203125
5.658577	-8.065000	1576.062866
6.658577	-8.065000	1570.000000
7.658577	-8.065000	1570.179321
8.658577	-8.065000	1588.565063
9.658577	-8.065000	1600.000000
10.658577	-8.065000	1587.641602
11.658577	-8.065000	1570.000000
12.658577	-8.065000	1583.786133
13.658577	-8.065000	1581.069702
14.658577	-8.065000	1582.639038
15.658577	-8.065000	1581.640015
16.658577	-8.065000	1583.809204
17.658577	-8.065000	1582.863159
18.658577	-8.065000	1583.175537
19.658577	-8.065000	1583.441772
20.658577	-8.065000	1583.171265
21.658577	-8.065000	1583.323242
22.658577	-8.065000	1582.566162
23.658577	-8.065000	1582.773071
24.658577	-8.065000	1584.524780
-39.341423	-7.065000	1570.000000
-38.341423	-7.065000	1570.000000
-37.341423	-7.065000	1570.000000
-36.341423	-7.065000	1570.000000
-35.341423	-7.065000	1570.000000
-34.341423	-7.065000	1570.000000
-33.341423	-7.065000	1570.000000
-32.341423	-7.065000	1570.000000
-31.341423	-7.065000	1570.000000
-30.341423	-7.065000	1570.000000
-29.341423	-7.065000	1570.000000
-28.341423	-7.065000	1570.000000
-27.341423	-7.065000	1576.401733
-26.341423	-7.065000	1572.844482
-25.341423	-7.065000	1570.000000
-24.341423	-7.065000	1583.424561
-23.341423	-7.065000	1582.131348
-22.341423	-7.065000	1584.386719
-21.341423	-7.065000	1581.323486
-20.341423	-7.065000	1581.821411
-19.341423	-7.065000	1577.449097
-18.341423	-7.065000	1577.832031
-17.341423	-7.065000	1571.110107
-16.341423	-7.065000	1570.000000
-15.341423	-7.065000	1580.305542
-14.341423	-7.065000	1570.000000
-13.341423	-7.065000	1570.000000
-12.341423	-7.065000	1581.000366
-11.341423	-7.065000	1570.000000
-10.341423	-7.065000	1570.000000
-9.341423	-7.065000	1571.353760
-8.341423	-7.065000	1572.237183
-7.341423	-7.065000	1582.377319
-6.341423	-7.065000	1580.780273
-5.341423	-7.065000	1582.149536
-4.341423	-7.065000	1580.369385
-3.341423	-7.065000	1577.931763
-2.341423	-7.065000	1570.000000
-1.341423	-7.065000	1583.961670
-0.341423	-7.065000	1584.901367
0.658577	-7.065000	1581.022095
1.658577	-7.065000	1580.376587
2.658577	-7.065000	1584.249634
3.658577	-7.065000	1583.734863
4.658577	-7.065000	1585.060181
5.658577	-7.065000	1578.517212
6.658577	-7.065000	1570.000000
7.658577	-7.065000	1582.092407
8.658577	-7.065000	1574.608887
9.658577	-7.065000	1570.000000
10.658577	-7.065000	1582.355957
11.658577	-7.065000	1586.537476
12.658577	-7.065000	1583.053711
13.658577	-7.065000	1574.919922
14.658577	-7.065000	1589.097900
15.658577	-7.065000	1579.321777
16.658577	-7.065000	1583.153809
17.658577	-7.065000	1582.589844
18.658577	-7.065000	1582.597778
19.658577	-7.065000	1584.665527
20.658577	-7.065000	1584.058960
21.658577	-7.065000	1583.608643
22.658577	-7.065000	1583.767944
23.658577	-7.065000	1587.270142
24.658577	-7.065000	1582.525269
-39.341423	-6.065000	1570.000000
-38.341423	-6.065000	1570.000000
-37.341423	-6.065000	1570.000000
-36.341423	-6.065000	1570.000000
-35.341423	-6.065000	1570.000000
-34.341423	-6.065000	1570.000000
-33.341423	-6.065000	1570.000000
-32.341423	-6.065000	1570.000000
-31.341423	-6.065000	1570.000000
-30.341423	-6.065000	1570.000000
-29.341423	-6.065000	1570.000000
-28.341423	-6.065000	1570.000000
-27.341423	-6.065000	1570.007202
-26.341423	-6.065000	1575.627563
-25.341423	-6.065000	1570.000000
-24.341423	-6.065000	1573.259155
-23.341423	-6.065000	1582.812622
-22.341423	-6.065000	1583.202148
-21.341423	-6.065000	1579.419556
-20.341423	-6.065000	1584.702393
-19.341423	-6.065000	1582.387695
-18.341423	-6.065000	1582.724731
-17.341423	-6.065000	1577.456055
-16.341423	-6.065000	1570.000000
-15.341423	-6.065000	1570.000000
-14.341423	-6.065000	1570.000000
-13.341423	-6.065000	1570.000000
-12.341423	-6.065000	1570.000000
-11.341423	-6.065000	1585.743408
-10.341423	-6.065000	1570.000000
-9.341423	-6.065000	1570.000000
-8.341423	-6.065000	1570.000000
-7.341423	-6.065000	1572.723511
-6.341423	-6.065000	1570.000000
-5.341423	-6.065000	1578.726440
-4.341423	-6.065000	1580.706177
-3.341423	-6.065000	1584.170532
-2.341423	-6.065000	1585.606812
-1.341423	-6.065000	1587.472168
-0.341423	-6.065000	1590.405029
0.658577	-6.065000	1582.805420
1.658577	-6.065000	1589.954102
2.658577	-6.065000	1578.705078
3.658577	-6.065000	1584.135498
4.658577	-6.065000	1585.025635
5.658577	-6.065000	1584.512207
6.658577	-6.065000	1584.425781
7.658577	-6.065000	1581.907715
8.658577	-6.065000	1586.317627
9.658577	-6.065000	1580.105469
10.658577	-6.065000	1582.029907
11.658577	-6.065000	1581.513184
12.658577	-6.065000	1573.225952
13.658577	-6.065000	1585.280762
14.658577	-6.065000	1584.092651
15.658577	-6.065000	1584.180420
16.658577	-6.065000	1583.327026
17.658577	-6.065000	1582.236938
18.658577	-6.065000	1582.642212
19.658577	-6.065000	1584.111816
20.658577	-6.065000	1582.709717
21.658577	-6.065000	1583.436035
22.658577	-6.065000	1583.007202
23.658577	-6.065000	1583.622803
24.658577	-6.065000	1583.506226
-39.341423	-5.065000	1573.699707
-38.341423	-5.065000	1570.000000
-37.341423	-5.065000	1570.000000
-36.341423	-5.065000	1570.000000
-35.341423	-5.065000	1570.000000
-34.341423	-5.065000	1570.000000
-33.341423	-5.065000	1570.000000
-32.341423	-5.065000	1570.000000
-31.341423	-5.065000	1571.091797
-30.341423	-5.065000	1570.000000
-29.341423	-5.065000	1572.060547
-28.341423	-5.065000	1579.262085
-27.341423	-5.065000	1582.048218
-26.341423	-5.065000	1579.626709
-25.341423	-5.065000	1582.817505
-24.341423	-5.065000	1570.000000
-23.341423	-5.065000	1570.908936
-22.341423	-5.065000	1579.102417
-21.341423	-5.065000	1578.661377
-20.341423	-5.065000	1584.754639
-19.341423	-5.065000	1589.069214
-18.341423	-5.065000	1583.226196
-17.341423	-5.065000	1584.024414
-16.341423	-5.065000	1570.000000
-15.341423	-5.065000	1570.000000
-14.341423	-5.065000	1570.000000
-13.341423	-5.065000	1570.000000
-12.341423	-5.065000	1570.000000
-11.341423	-5.065000	1570.000000
-10.341423	-5.065000	1570.000000
-9.341423	-5.065000	1570.000000
-8.341423	-5.065000	1570.000000
-7.341423	-5.065000	1570.000000
-6.341423	-5.065000	1570.507935
-5.341423	-5.065000	1572.420776
-4.341423	-5.065000	1583.065552
-3.341423	-5.065000	1596.765015
-2.341423	-5.065000	1570.000000
-1.341423	-5.065000	1578.944580
-0.341423	-5.065000	1578.869141
0.658577	-5.065000	1584.625122
1.658577	-5.065000	1584.666748
2.658577	-5.065000	1570.000000
3.658577	-5.065000	1586.021729
4.658577	-5.065000	1580.748169
5.658577	-5.065000	1584.114014
6.658577	-5.065000	1582.585571
7.658577	-5.065000	1584.172119
8.658577	-5.065000	1582.020142
9.658577	-5.065000	1580.612061
10.658577	-5.065000	1583.273315
11.658577	-5.065000	1581.697632
12.658577	-5.065000	1577.780151
13.658577	-5.065000	1587.774780
14.658577	-5.065000	1587.988770
15.658577	-5.065000	1583.618042
16.658577	-5.065000	1582.735352
17.658577	-5.065000	1583.400146
18.658577	-5.065000	1582.541260
19.658577	-5.065000	1582.702759
20.658577	-5.065000	1582.842285
21.658577	-5.065000	1581.547485
22.658577	-5.065000	1582.869385
23.658577	-5.065000	1583.545044
24.658577	-5.065000	1584.024170
-39.341423	-4.065000	1585.572998
-38.341423	-4.065000	1577.201782
-37.341423	-4.065000	1584.418457
-36.341423	-4.065000	1586.736572
-35.341423	-4.065000	1582.504883
-34.341423	-4.065000	1570.000000
-33.341423	-4.065000	1570.000000
-32.341423	-4.065000	1572.145508
-31.341423	-4.065000	1573.066650
-30.341423	-4.065000	1575.785767
-29.341423	-4.065000	1574.787720
-28.341423	-4.065000	1570.000000
-27.341423	-4.065000	1580.940674
-26.341423	-4.065000	1581.227905
-25.341423	-4.065000	1579.402588
-24.341423	-4.065000	1574.826660
-23.341423	-4.065000	1570.000000
-22.341423	-4.065000	1570.316406
-21.341423	-4.065000	1582.056274
-20.341423	-4.065000	1583.444702
-19.341423	-4.065000	1573.011963
-18.341423	-4.065000	1575.870850
-17.341423	-4.065000	1572.339722
-16.341423	-4.065000	1574.956177
-15.341423	-4.065000	1570.000000
-14.341423	-4.065000	1570.000000
-13.341423	-4.065000	1570.000000
-12.341423	-4.065000	1570.000000
-11.341423	-4.065000	1582.493286
-10.341423	-4.065000	1586.048340
-9.341423	-4.065000	1580.027832
-8.341423	-4.065000	1570.000000
-7.341423	-4.065000	1570.000000
-6.341423	-4.065000	1581.056396
-5.341423	-4.065000	1574.025391
-4.341423	-4.065000	1585.127319
-3.341423	-4.065000	1585.171143
-2.341423	-4.065000	1570.000000
-1.341423	-4.065000	1577.494019
-0.341423	-4.065000	1570.000000
0.658577	-4.065000	1583.690918
1.658577	-4.065000	1586.113281
2.658577	-4.065000	1582.032837
3.658577	-4.065000	1588.506104
4.658577	-4.065000	1582.282593
5.658577	-4.065000	1582.511353
6.658577	-4.065000	1579.593872
7.658577	-4.065000	1574.182129
8.658577	-4.065000	1573.063354
9.658577	-4.065000	1574.870117
10.658577	-4.065000	1579.110474
11.658577	-4.065000	1582.969482
12.658577	-4.065000	1578.570068
13.658577	-4.065000	1572.363403
14.658577	-4.065000	1570.000000
15.658577	-4.065000	1570.000000
16.658577	-4.065000	1578.597168
17.658577	-4.065000	1585.519165
18.658577	-4.065000	1583.441284
19.658577	-4.065000	1583.833374
20.658577	-4.065000	1583.994873
21.658577	-4.065000	1583.992798
22.658577	-4.065000	1584.562500
23.658577	-4.065000	1583.884888
24.658577	-4.065000	1584.576904
-39.341423	-3.065000	1595.394897
-38.341423	-3.065000	1588.750854
-37.341423	-3.065000	1583.690308
-36.341423	-3.065000	1584.212402
-35.341423	-3.065000	1586.114624
-34.341423	-3.065000	1570.000000
-33.341423	-3.065000	1578.409424
-32.341423	-3.065000	1582.145874
-31.341423	-3.065000	1575.848511
-30.341423	-3.065000	1572.540527
-29.341423	-3.065000	1580.736938
-28.341423	-3.065000	1591.339600
-27.341423	-3.065000	1583.214844
-26.341423	-3.065000	1587.645508
-25.341423	-3.065000	1586.916504
-24.341423	-3.065000	1570.000000
-23.341423	-3.065000	1570.000000
-22.341423	-3.065000	1570.000000
-21.341423	-3.065000	1581.700684
-20.341423	-3.065000	1570.000000
-19.341423	-3.065000	1584.131836
-18.341423	-3.065000	1583.437622
-17.341423	-3.065000	1579.277466
-16.341423	-3.065000	1577.413940
-15.341423	-3.065000	1571.781982
-14.341423	-3.065000	1570.000000
-13.341423	-3.065000	1570.000000
-12.341423	-3.065000	1584.874512
-11.341423	-3.065000	1583.356201
-10.341423	-3.065000	1583.048706
-9.341423	-3.065000	1583.385254
-8.341423	-3.065000	1582.435669
-7.341423	-3.065000	1583.030640
-6.341423	-3.065000	1582.336792
-5.341423	-3.065000	1580.478760
-4.341423	-3.065000	1580.704346
-3.341423	-3.065000	1581.577271
-2.341423	-3.065000	1570.000000
-1.341423	-3.065000	1570.000000
-0.341423	-3.065000	1570.000000
0.658577	-3.065000	1575.061035
1.658577	-3.065000	1583.598389
2.658577	-3.065000	1578.310059
3.658577	-3.065000	1575.535645
4.658577	-3.065000	1581.949951
5.658577	-3.065000	1581.563599
6.658577	-3.065000	1583.503052
7.658577	-3.065000	1581.624390
8.658577	-3.065000	1574.426147
9.658577	-3.065000	1582.182861
10.658577	-3.065000	1582.233765
11.658577	-3.065000	1579.659546
12.658577	-3.065000	1572.596313
13.658577	-3.065000	1570.000000
14.658577	-3.065000	1572.665527
15.658577	-3.065000	1575.680054
16.658577	-3.065000	1584.728394
17.658577	-3.065000	1585.220947
18.658577	-3.065000	1584.943726
19.658577	-3.065000	1583.479248
20.658577	-3.065000	1583.030029
21.658577	-3.065000	1584.792725
22.658577	-3.065000	1586.006958
23.658577	-3.065000	1584.001099
24.658577	-3.065000	1585.452148
-39.341423	-2.065000	1590.259521
-38.341423	-2.065000	1572.485352
-37.341423	-2.065000	1581.729370
-36.341423	-2.065000	1583.548340
-35.341423	-2.065000	1579.550171
-34.341423	-2.065000	1581.886353
-33.341423	-2.065000	1574.971558
-32.341423	-2.065000	1586.713501
-31.341423	-2.065000	1570.000000
-30.341423	-2.065000	1570.000000
-29.341423	-2.065000	1570.564453
-28.341423	-2.065000	1570.000000
-27.341423	-2.065000	1575.235718
-26.341423	-2.065000	1570.000000
-25.341423	-2.065000	1570.000000
-24.341423	-2.065000	1570.000000
-23.341423	-2.065000	1587.514282
-22.341423	-2.065000	1575.795532
-21.341423	-2.065000	1580.413452
-20.341423	-2.065000	1581.058472
-19.341423	-2.065000	1581.844238
-18.341423	-2.065000	1571.819702
-17.341423	-2.065000	1585.102783
-16.341423	-2.065000	1583.202637
-15.341423	-2.065000	1570.749023
-14.341423	-2.065000	1570.000000
-13.341423	-2.065000	1570.000000
-12.341423	-2.065000	1585.416504
-11.341423	-2.065000	1582.436646
-10.341423	-2.065000	1575.429932
-9.341423	-2.065000	1585.832520
-8.341423	-2.065000	1582.843018
-7.341423	-2.065000	1582.653564
-6.341423	-2.065000	1583.770752
-5.341423	-2.065000	1581.840576
-4.341423	-2.065000	1582.572021
-3.341423	-2.065000	1581.536133
-2.341423	-2.065000	1570.000000
-1.341423	-2.065000	1570.000000
-0.341423	-2.065000	1570.000000
0.658577	-2.065000	1570.000000
1.658577	-2.065000	1570.000000
2.658577	-2.065000	1576.609985
3.658577	-2.065000	1574.424194
4.658577	-2.065000	1584.953125
5.658577	-2.065000	1583.648071
6.658577	-2.065000	1589.341675
7.658577	-2.065000	1581.721924
8.658577	-2.065000	1583.661743
9.658577	-2.065000	1582.211914
10.658577	-2.065000	1585.045532
11.658577	-2.065000	1584.603027
12.658577	-2.065000	1581.798096
13.658577	-2.065000	1570.000000
14.658577	-2.065000	1570.000000
15.658577	-2.065000	1588.552124
16.658577	-2.065000	1584.935425
17.658577	-2.065000	1584.915527
18.658577	-2.065000	1578.229492
19.658577	-2.065000	1585.932251
20.658577	-2.065000	1584.052124
21.658577	-2.065000	1583.266968
22.658577	-2.065000	1585.209106
23.658577	-2.065000	1584.320068
24.658577	-2.065000	1583.952148
-39.341423	-1.065000	1581.342651
-38.341423	-1.065000	1581.275146
-37.341423	-1.065000	1581.745850
-36.341423	-1.065000	1582.431152
-35.341423	-1.065000	1582.748047
-34.341423	-1.065000	1581.249878
-33.341423	-1.065000	1582.349243
-32.341423	-1.065000	1582.246216
-31.341423	-1.065000	1583.468872
-30.341423	-1.065000	1582.359497
-29.341423	-1.065000	1583.249512
-28.341423	-1.065000	1574.206177
-27.341423	-1.065000	1587.795532
-26.341423	-1.065000	1582.971436
-25.341423	-1.065000	1571.210571
-24.341423	-1.065000	1574.984497
-23.341423	-1.065000	1570.000000
-22.341423	-1.065000	1571.062256
-21.341423	-1.065000	1573.510498
-20.341423	-1.065000	1581.029541
-19.341423	-1.065000	1570.000000
-18.341423	-1.065000	1582.115356
-17.341423	-1.065000	1583.150146
-16.341423	-1.065000	1583.185425
-15.341423	-1.065000	1577.789063
-14.341423	-1.065000	1570.000000
-13.341423	-1.065000	1570.000000
-12.341423	-1.065000	1570.000000
-11.341423	-1.065000	1578.857910
-10.341423	-1.065000	1582.167358
-9.341423	-1.065000	1582.829468
-8.341423	-1.065000	1581.921387
-7.341423	-1.065000	1583.467896
-6.341423	-1.065000	1583.916260
-5.341423	-1.065000	1570.000000
-4.341423	-1.065000	1581.526733
-3.341423	-1.065000	1581.873047
-2.341423	-1.065000	1570.000000
-1.341423	-1.065000	1573.059570
-0.341423	-1.065000	1570.000000
0.658577	-1.065000	1570.000000
1.658577	-1.065000	1575.014648
2.658577	-1.065000	1576.236694
3.658577	-1.065000	1586.955444
4.658577	-1.065000	1582.799438
5.658577	-1.065000	1583.564087
6.658577	-1.065000	1580.138550
7.658577	-1.065000	1577.479492
8.658577	-1.065000	1581.983887
9.658577	-1.065000	1583.758301
10.658577	-1.065000	1584.841797
11.658577	-1.065000	1573.348511
12.658577	-1.065000	1579.198975
13.658577	-1.065000	1570.000000
14.658577	-1.065000	1570.000000
15.658577	-1.065000	1579.103882
16.658577	-1.065000	1584.738403
17.658577	-1.065000	1584.194580
18.658577	-1.065000	1584.976563
19.658577	-1.065000	1584.023438
20.658577	-1.065000	1570.000000
21.658577	-1.065000	1570.000000
22.658577	-1.065000	1584.854126
23.658577	-1.065000	1583.313354
24.658577	-1.065000	1584.535767
-39.341423	-0.065000	1579.967773
-38.341423	-0.065000	1579.897095
-37.341423	-0.065000	1580.474609
-36.341423	-0.065000	1581.012207
-35.341423	-0.065000	1581.091187
-34.341423	-0.065000	1582.311157
-33.341423	-0.065000	1583.185791
-32.341423	-0.065000	1582.496338
-31.341423	-0.065000	1582.013550
-30.341423	-0.065000	1581.989380
-29.341423	-0.065000	1582.790894
-28.341423	-0.065000	1570.375244
-27.341423	-0.065000	1600.000000
-26.341423	-0.065000	1582.442017
-25.341423	-0.065000	1570.000000
-24.341423	-0.065000	1570.000000
-23.341423	-0.065000	1574.723022
-22.341423	-0.065000	1573.214111
-21.341423	-0.065000	1578.438232
-20.341423	-0.065000	1575.568726
-19.341423	-0.065000	1575.165527
-18.341423	-0.065000	1582.711792
-17.341423	-0.065000	1582.382202
-16.341423	-0.065000	1582.858521
-15.341423	-0.065000	1576.767212
-14.341423	-0.065000	1570.000000
-13.341423	-0.065000	1570.000000
-12.341423	-0.065000	1570.000000
-11.341423	-0.065000	1570.000000
-10.341423	-0.065000	1580.802979
-9.341423	-0.065000	1582.042847
-8.341423	-0.065000	1582.051514
-7.341423	-0.065000	1583.229614
-6.341423	-0.065000	1582.025513
-5.341423	-0.065000	1570.000000
-4.341423	-0.065000	1580.559937
-3.341423	-0.065000	1581.610840
-2.341423	-0.065000	1570.000000
-1.341423	-0.065000	1570.000000
-0.341423	-0.065000	1570.000000
0.658577	-0.065000	1570.000000
1.658577	-0.065000	1571.645874
2.658577	-0.065000	1584.880859
3.658577	-0.065000	1583.401245
4.658577	-0.065000	1583.230591
5.658577	-0.065000	1583.016235
6.658577	-0.065000	1570.000000
7.658577	-0.065000	1570.000000
8.658577	-0.065000	1570.000000
9.658577	-0.065000	1577.177856
10.658577	-0.065000	1576.821045
11.658577	-0.065000	1572.440186
12.658577	-0.065000	1572.853638
13.658577	-0.065000	1581.106445
14.658577	-0.065000	1581.517334
15.658577	-0.065000	1570.773682
16.658577	-0.065000	1575.395996
17.658577	-0.065000	1583.209595
18.658577	-0.065000	1578.339966
19.658577	-0.065000	1570.000000
20.658577	-0.065000	1570.000000
21.658577	-0.065000	1570.000000
22.658577	-0.065000	1577.883301
23.658577	-0.065000	1583.453003
24.658577	-0.065000	1583.626099
-39.341423	0.935000	1579.830933
-38.341423	0.935000	1580.513062
-37.341423	0.935000	1580.355103
-36.341423	0.935000	1580.745117
-35.341423	0.935000	1582.350708
-34.341423	0.935000	1581.703613
-33.341423	0.935000	1582.734009
-32.341423	0.935000	1583.134766
-31.341423	0.935000	1583.314941
-30.341423	0.935000	1583.763794
-29.341423	0.935000	1583.947754
-28.341423	0.935000	1591.582642
-27.341423	0.935000	1581.560059
-26.341423	0.935000	1576.523682
-25.341423	0.935000	1570.000000
-24.341423	0.935000	1570.000000
-23.341423	0.935000	1582.684814
-22.341423	0.935000	1570.000000
-21.341423	0.935000	1570.000000
-20.341423	0.935000	1570.000000
-19.341423	0.935000	1580.881592
-18.341423	0.935000	1582.827637
-17.341423	0.935000	1583.384277
-16.341423	0.935000	1583.298096
-15.341423	0.935000	1573.974243
-14.341423	0.935000	1570.000000
-13.341423	0.935000	1570.000000
-12.341423	0.935000	1570.000000
-11.341423	0.935000	1570.000000
-10.341423	0.935000	1570.000000
-9.341423	0.935000	1581.216919
-8.341423	0.935000	1582.333618
-7.341423	0.935000	1583.110474
-6.341423	0.935000	1581.712646
-5.341423	0.935000	1570.055176
-4.341423	0.935000	1570.000000
-3.341423	0.935000	1570.648315
-2.341423	0.935000	1580.819824
-1.341423	0.935000	1570.000000
-0.341423	0.935000	1570.000000
0.658577	0.935000	1570.000000
1.658577	0.935000	1576.774780
2.658577	0.935000	1583.244873
3.658577	0.935000	1584.253784
4.658577	0.935000	1583.528198
5.658577	0.935000	1579.062500
6.658577	0.935000	1579.831299
7.658577	0.935000	1581.589600
8.658577	0.935000	1578.315308
9.658577	0.935000	1570.167358
10.658577	0.935000	1576.262817
11.658577	0.935000	1578.968872
12.658577	0.935000	1576.818726
13.658577	0.935000	1579.698120
14.658577	0.935000	1578.104370
15.658577	0.935000	1575.866577
16.658577	0.935000	1578.115601
17.658577	0.935000	1579.523315
18.658577	0.935000	1570.870728
19.658577	0.935000	1570.000000
20.658577	0.935000	1570.000000
21.658577	0.935000	1570.000000
22.658577	0.935000	1570.000000
23.658577	0.935000	1583.045532
24.658577	0.935000	1584.041138
-39.341423	1.935000	1580.103638
-38.341423	1.935000	1580.488525
-37.341423	1.935000	1580.769653
-36.341423	1.935000	1581.790771
-35.341423	1.935000	1579.630005
-34.341423	1.935000	1582.403442
-33.341423	1.935000	1582.021606
-32.341423	1.935000	1576.262939
-31.341423	1.935000	1585.633911
-30.341423	1.935000	1585.584106
-29.341423	1.935000	1576.246704
-28.341423	1.935000	1570.000000
-27.341423	1.935000	1581.312134
-26.341423	1.935000	1570.000000
-25.341423	1.935000	1576.487061
-24.341423	1.935000	1584.450928
-23.341423	1.935000	1584.725952
-22.341423	1.935000	1570.000000
-21.341423	1.935000	1570.000000
-20.341423	1.935000	1570.000000
-19.341423	1.935000	1579.661011
-18.341423	1.935000	1583.147217
-17.341423	1.935000	1583.452637
-16.341423	1.935000	1585.709106
-15.341423	1.935000	1578.855591
-14.341423	1.935000	1573.356079
-13.341423	1.935000	1570.000000
-12.341423	1.935000	1585.734863
-11.341423	1.935000	1570.000000
-10.341423	1.935000	1570.000000
-9.341423	1.935000	1570.000000
-8.341423	1.935000	1570.000000
-7.341423	1.935000	1586.135376
-6.341423	1.935000	1580.609009
-5.341423	1.935000	1570.000000
-4.341423	1.935000	1570.000000
-3.341423	1.935000	1570.000000
-2.341423	1.935000	1570.000000
-1.341423	1.935000	1570.000000
-0.341423	1.935000	1570.000000
0.658577	1.935000	1577.166504
1.658577	1.935000	1585.440674
2.658577	1.935000	1583.190186
3.658577	1.935000	1584.339111
4.658577	1.935000	1583.483398
5.658577	1.935000	1574.980225
6.658577	1.935000	1571.840454
7.658577	1.935000	1570.653076
8.658577	1.935000	1570.218872
9.658577	1.935000	1570.000000
10.658577	1.935000	1570.000000
11.658577	1.935000	1570.000000
12.658577	1.935000	1570.000000
13.658577	1.935000	1577.349609
14.658577	1.935000	1580.075195
15.658577	1.935000	1581.386597
16.658577	1.935000	1587.231812
17.658577	1.935000	1580.728394
18.658577	1.935000	1575.687256
19.658577	1.935000	1577.718628
20.658577	1.935000	1570.000000
21.658577	1.935000	1570.000000
22.658577	1.935000	1573.715332
23.658577	1.935000	1577.473877
24.658577	1.935000	1571.227295
-39.341423	2.935000	1581.761353
-38.341423	2.935000	1582.842651
-37.341423	2.935000	1578.608521
-36.341423	2.935000	1581.326904
-35.341423	2.935000	1581.875488
-34.341423	2.935000	1581.252319
-33.341423	2.935000	1582.327515
-32.341423	2.935000	1570.000000
-31.341423	2.935000	1586.414185
-30.341423	2.935000	1588.532593
-29.341423	2.935000	1579.857422
-28.341423	2.935000	1573.878052
-27.341423	2.935000	1573.253296
-26.341423	2.935000	1571.774780
-25.341423	2.935000	1576.239014
-24.341423	2.935000	1585.153198
-23.341423	2.935000	1585.458618
-22.341423	2.935000	1585.549194
-21.341423	2.935000	1570.000000
-20.341423	2.935000	1573.103516
-19.341423	2.935000	1581.141846
-18.341423	2.935000	1585.166016
-17.341423	2.935000	1570.000000
-16.341423	2.935000	1595.954834
-15.341423	2.935000	1580.628662
-14.341423	2.935000	1579.991943
-13.341423	2.935000	1570.626465
-12.341423	2.935000	1572.071045
-11.341423	2.935000	1573.670044
-10.341423	2.935000	1570.586548
-9.341423	2.935000	1570.000000
-8.341423	2.935000	1580.946289
-7.341423	2.935000	1581.925659
-6.341423	2.935000	1582.738403
-5.341423	2.935000	1570.000000
-4.341423	2.935000	1570.000000
-3.341423	2.935000	1570.000000
-2.341423	2.935000	1577.486328
-1.341423	2.935000	1570.000000
-0.341423	2.935000	1570.000000
0.658577	2.935000	1570.000000
1.658577	2.935000	1582.879639
2.658577	2.935000	1583.885498
3.658577	2.935000	1583.069092
4.658577	2.935000	1582.456177
5.658577	2.935000	1581.009644
6.658577	2.935000	1584.216675
7.658577	2.935000	1570.000000
8.658577	2.935000	1570.000000
9.658577	2.935000	1570.000000
10.658577	2.935000	1570.000000
11.658577	2.935000	1586.838379
12.658577	2.935000	1577.480225
13.658577	2.935000	1579.812134
14.658577	2.935000	1573.494751
15.658577	2.935000	1582.934326
16.658577	2.935000	1585.116211
17.658577	2.935000	1570.000000
18.658577	2.935000	1572.230225
19.658577	2.935000	1570.000000
20.658577	2.935000	1578.340576
21.658577	2.935000	1570.000000
22.658577	2.935000	1570.000000
23.658577	2.935000	1570.000000
24.658577	2.935000	1584.459351
-39.341423	3.935000	1579.523560
-38.341423	3.935000	1579.410522
-37.341423	3.935000	1586.824097
-36.341423	3.935000	1582.869019
-35.341423	3.935000	1582.792236
-34.341423	3.935000	1583.003662
-33.341423	3.935000	1581.945679
-32.341423	3.935000	1583.011841
-31.341423	3.935000	1583.590088
-30.341423	3.935000	1581.708374
-29.341423	3.935000	1581.877930
-28.341423	3.935000	1579.219116
-27.341423	3.935000	1579.473022
-26.341423	3.935000	1580.561768
-25.341423	3.935000	1573.833862
-24.341423	3.935000	1573.320801
-23.341423	3.935000	1585.064575
-22.341423	3.935000	1584.690430
-21.341423	3.935000	1570.000000
-20.341423	3.935000	1572.708130
-19.341423	3.935000	1570.000000
-18.341423	3.935000	1570.000000
-17.341423	3.935000	1570.000000
-16.341423	3.935000	1579.392700
-15.341423	3.935000	1570.411499
-14.341423	3.935000	1577.284180
-13.341423	3.935000	1570.916138
-12.341423	3.935000	1584.756348
-11.341423	3.935000	1587.270752
-10.341423	3.935000	1579.150269
-9.341423	3.935000	1583.964600
-8.341423	3.935000	1582.179199
-7.341423	3.935000	1582.130981
-6.341423	3.935000	1576.465698
-5.341423	3.935000	1575.404907
-4.341423	3.935000	1570.000000
-3.341423	3.935000	1570.000000
-2.341423	3.935000	1570.000000
-1.341423	3.935000	1570.000000
-0.341423	3.935000	1570.000000
0.658577	3.935000	1570.000000
1.658577	3.935000	1576.450073
2.658577	3.935000	1580.870239
3.658577	3.935000	1582.286133
4.658577	3.935000	1583.774048
5.658577	3.935000	1582.162476
6.658577	3.935000	1577.661377
7.658577	3.935000	1570.000000
8.658577	3.935000	1570.000000
9.658577	3.935000	1570.640503
10.658577	3.935000	1585.641479
11.658577	3.935000	1584.450562
12.658577	3.935000	1584.599609
13.658577	3.935000	1581.899292
14.658577	3.935000	1573.520142
15.658577	3.935000	1584.751465
16.658577	3.935000	1584.377808
17.658577	3.935000	1570.000000
18.658577	3.935000	1570.000000
19.658577	3.935000	1570.000000
20.658577	3.935000	1574.110596
21.658577	3.935000	1573.887329
22.658577	3.935000	1570.000000
23.658577	3.935000	1582.278564
24.658577	3.935000	1583.765991
-39.341423	4.935000	1570.000000
-38.341423	4.935000	1580.817749
-37.341423	4.935000	1572.617676
-36.341423	4.935000	1570.000000
-35.341423	4.935000	1570.000000
-34.341423	4.935000	1570.636230
-33.341423	4.935000	1582.393066
-32.341423	4.935000	1581.212036
-31.341423	4.935000	1582.333374
-30.341423	4.935000	1582.806274
-29.341423	4.935000	1580.033081
-28.341423	4.935000	1580.947510
-27.341423	4.935000	1580.753784
-26.341423	4.935000	1584.110229
-25.341423	4.935000	1574.418457
-24.341423	4.935000	1585.686768
-23.341423	4.935000	1584.294800
-22.341423	4.935000	1584.082886
-21.341423	4.935000	1582.893921
-20.341423	4.935000	1583.651733
-19.341423	4.935000	1570.000000
-18.341423	4.935000	1570.000000
-17.341423	4.935000	1570.000000
-16.341423	4.935000	1570.000000
-15.341423	4.935000	1572.136597
-14.341423	4.935000	1573.871094
-13.341423	4.935000	1592.234131
-12.341423	4.935000	1581.355103
-11.341423	4.935000	1581.854004
-10.341423	4.935000	1583.928101
-9.341423	4.935000	1580.612671
-8.341423	4.935000	1582.601196
-7.341423	4.935000	1583.380371
-6.341423	4.935000	1579.129761
-5.341423	4.935000	1576.408325
-4.341423	4.935000	1570.727173
-3.341423	4.935000	1570.000000
-2.341423	4.935000	1570.000000
-1.341423	4.935000	1570.000000
-0.341423	4.935000	1570.000000
0.658577	4.935000	1570.000000
1.658577	4.935000	1570.000000
2.658577	4.935000	1576.524536
3.658577	4.935000	1583.130981
4.658577	4.935000	1583.410767
5.658577	4.935000	1580.541138
6.658577	4.935000	1583.662720
7.658577	4.935000	1582.082153
8.658577	4.935000	1571.776733
9.658577	4.935000	1570.712524
10.658577	4.935000	1570.000000
11.658577	4.935000	1581.170166
12.658577	4.935000	1576.095703
13.658577	4.935000	1583.420044
14.658577	4.935000	1579.899414
15.658577	4.935000	1570.000000
16.658577	4.935000	1582.919312
17.658577	4.935000	1581.199585
18.658577	4.935000	1570.000000
19.658577	4.935000	1570.000000
20.658577	4.935000	1582.042114
21.658577	4.935000	1570.000000
22.658577	4.935000	1573.002075
23.658577	4.935000	1570.000000
24.658577	4.935000	1583.647095
-39.341423	5.935000	1570.000000
-38.341423	5.935000	1570.000000
-37.341423	5.935000	1570.000000
-36.341423	5.935000	1570.000000
-35.341423	5.935000	1570.000000
-34.341423	5.935000	1570.000000
-33.341423	5.935000	1570.000000
-32.341423	5.935000	1570.000000
-31.341423	5.935000	1583.078735
-30.341423	5.935000	1584.727661
-29.341423	5.935000	1584.569092
-28.341423	5.935000	1576.694824
-27.341423	5.935000	1583.521606
-26.341423	5.935000	1580.443115
-25.341423	5.935000	1571.405029
-24.341423	5.935000	1570.000000
-23.341423	5.935000	1583.118530
-22.341423	5.935000	1584.696899
-21.341423	5.935000	1584.681396
-20.341423	5.935000	1570.000000
-19.341423	5.935000	1570.000000
-18.341423	5.935000	1570.000000
-17.341423	5.935000	1570.000000
-16.341423	5.935000	1570.000000
-15.341423	5.935000	1573.222168
-14.341423	5.935000	1573.971924
-13.341423	5.935000	1572.842529
-12.341423	5.935000	1570.000000
-11.341423	5.935000	1581.018188
-10.341423	5.935000	1573.384399
-9.341423	5.935000	1586.770874
-8.341423	5.935000	1579.414429
-7.341423	5.935000	1582.983643
-6.341423	5.935000	1582.389404
-5.341423	5.935000	1585.439331
-4.341423	5.935000	1587.075195
-3.341423	5.935000	1571.620361
-2.341423	5.935000	1570.000000
-1.341423	5.935000	1570.000000
-0.341423	5.935000	1570.000000
0.658577	5.935000	1570.000000
1.658577	5.935000	1570.000000
2.658577	5.935000	1583.543091
3.658577	5.935000	1583.167358
4.658577	5.935000	1584.644653
5.658577	5.935000	1583.220215
6.658577	5.935000	1583.976196
7.658577	5.935000	1584.202881
8.658577	5.935000	1584.379150
9.658577	5.935000	1577.550293
10.658577	5.935000	1571.175781
11.658577	5.935000	1578.876099
12.658577	5.935000	1584.121460
13.658577	5.935000	1583.137817
14.658577	5.935000	1581.197876
15.658577	5.935000	1575.548950
16.658577	5.935000	1570.000000
17.658577	5.935000	1570.000000
18.658577	5.935000	1570.000000
19.658577	5.935000	1570.000000
20.658577	5.935000	1575.311401
21.658577	5.935000	1571.521484
22.658577	5.935000	1570.000000
23.658577	5.935000	1570.000000
24.658577	5.935000	1584.943726
-39.341423	6.935000	1570.000000
-38.341423	6.935000	1570.000000
-37.341423	6.935000	1570.000000
-36.341423	6.935000	1570.000000
-35.341423	6.935000	1570.000000
-34.341423	6.935000	1570.000000
-33.341423	6.935000	1570.000000
-32.341423	6.935000	1570.000000
-31.341423	6.935000	1582.022583
-30.341423	6.935000	1570.000000
-29.341423	6.935000	1578.302490
-28.341423	6.935000	1585.936157
-27.341423	6.935000	1584.731934
-26.341423	6.935000	1583.345459
-25.341423	6.935000	1575.846680
-24.341423	6.935000	1571.903931
-23.341423	6.935000	1583.991333
-22.341423	6.935000	1584.378662
-21.341423	6.935000	1583.933350
-20.341423	6.935000	1570.000000
-19.341423	6.935000	1570.000000
-18.341423	6.935000	1570.000000
-17.341423	6.935000	1570.000000
-16.341423	6.935000	1570.000000
-15.341423	6.935000	1574.018677
-14.341423	6.935000	1570.000000
-13.341423	6.935000	1570.000000
-12.341423	6.935000	1579.270508
-11.341423	6.935000	1584.940308
-10.341423	6.935000	1585.725342
-9.341423	6.935000	1585.429321
-8.341423	6.935000	1580.925171
-7.341423	6.935000	1582.980957
-6.341423	6.935000	1583.175293
-5.341423	6.935000	1580.940552
-4.341423	6.935000	1579.020142
-3.341423	6.935000	1583.690674
-2.341423	6.935000	1570.000000
-1.341423	6.935000	1570.000000
-0.341423	6.935000	1570.000000
0.658577	6.935000	1570.000000
1.658577	6.935000	1570.000000
2.658577	6.935000	1579.671753
3.658577	6.935000	1581.348511
4.658577	6.935000	1582.601074
5.658577	6.935000	1582.813599
6.658577	6.935000	1582.503662
7.658577	6.935000	1586.732300
8.658577	6.935000	1583.533813
9.658577	6.935000	1583.868286
10.658577	6.935000	1575.776123
11.658577	6.935000	1579.014893
12.658577	6.935000	1575.799683
13.658577	6.935000	1579.134521
14.658577	6.935000	1579.428101
15.658577	6.935000	1581.108154
16.658577	6.935000	1575.038818
17.658577	6.935000	1570.000000
18.658577	6.935000	1570.000000
19.658577	6.935000	1580.649292
20.658577	6.935000	1574.808594
21.658577	6.935000	1571.840698
22.658577	6.935000	1570.668701
23.658577	6.935000	1570.000000
24.658577	6.935000	1570.000000
-39.341423	7.935000	1570.000000
-38.341423	7.935000	1570.000000
-37.341423	7.935000	1570.000000
-36.341423	7.935000	1570.000000
-35.341423	7.935000	1570.000000
-34.341423	7.935000	1570.000000
-33.341423	7.935000	1570.000000
-32.341423	7.935000	1570.000000
-31.341423	7.935000	1570.000000
-30.341423	7.935000	1581.661499
-29.341423	7.935000	1577.562500
-28.341423	7.935000	1582.142944
-27.341423	7.935000	1583.591675
-26.341423	7.935000	1584.019531
-25.341423	7.935000	1583.154419
-24.341423	7.935000	1583.880127
-23.341423	7.935000	1584.535400
-22.341423	7.935000	1585.293701
-21.341423	7.935000	1584.921753
-20.341423	7.935000	1583.309082
-19.341423	7.935000	1571.529297
-18.341423	7.935000	1579.804932
-17.341423	7.935000	1570.000000
-16.341423	7.935000	1576.961792
-15.341423	7.935000	1570.000000
-14.341423	7.935000	1570.068726
-13.341423	7.935000	1585.729980
-12.341423	7.935000	1570.000000
-11.341423	7.935000	1584.203003
-10.341423	7.935000	1585.946655
-9.341423	7.935000	1586.003906
-8.341423	7.935000	1586.293091
-7.341423	7.935000	1586.010620
-6.341423	7.935000	1583.727295
-5.341423	7.935000	1581.487183
-4.341423	7.935000	1581.895386
-3.341423	7.935000	1584.123657
-2.341423	7.935000	1573.303711
-1.341423	7.935000	1570.000000
-0.341423	7.935000	1570.000000
0.658577	7.935000	1570.000000
1.658577	7.935000	1579.948975
2.658577	7.935000	1577.539795
3.658577	7.935000	1583.451538
4.658577	7.935000	1583.661743
5.658577	7.935000	1582.424805
6.658577	7.935000	1581.545654
7.658577	7.935000	1584.238037
8.658577	7.935000	1583.097412
9.658577	7.935000	1582.600952
10.658577	7.935000	1580.631836
11.658577	7.935000	1580.488525
12.658577	7.935000	1588.108643
13.658577	7.935000	1577.026611
14.658577	7.935000	1570.000000
15.658577	7.935000	1579.582031
16.658577	7.935000	1582.172729
17.658577	7.935000	1580.030884
18.658577	7.935000	1574.717407
19.658577	7.935000	1577.858887
20.658577	7.935000	1570.885864
21.658577	7.935000	1575.095093
22.658577	7.935000	1577.458740
23.658577	7.935000	1580.353394
24.658577	7.935000	1570.000000
-39.341423	8.935000	1570.000000
-38.341423	8.935000	1570.000000
-37.341423	8.935000	1570.000000
-36.341423	8.935000	1570.000000
-35.341423	8.935000	1570.000000
-34.341423	8.935000	1570.000000
-33.341423	8.935000	1570.000000
-32.341423	8.935000	1570.000000
-31.341423	8.935000	1570.000000
-30.341423	8.935000	1580.752563
-29.341423	8.935000	1580.079224
-28.341423	8.935000	1577.301636
-27.341423	8.935000	1584.515137
-26.341423	8.935000	1583.642456
-25.341423	8.935000	1583.572510
-24.341423	8.935000	1584.445190
-23.341423	8.935000	1584.169312
-22.341423	8.935000	1585.317627
-21.341423	8.935000	1584.913330
-20.341423	8.935000	1584.841675
-19.341423	8.935000	1583.717529
-18.341423	8.935000	1581.828125
-17.341423	8.935000	1570.000000
-16.341423	8.935000	1570.000000
-15.341423	8.935000	1570.000000
-14.341423	8.935000	1570.000000
-13.341423	8.935000	1579.613403
-12.341423	8.935000	1570.000000
-11.341423	8.935000	1584.917114
-10.341423	8.935000	1586.978271
-9.341423	8.935000	1586.501221
-8.341423	8.935000	1586.612061
-7.341423	8.935000	1586.130127
-6.341423	8.935000	1579.726563
-5.341423	8.935000	1584.379028
-4.341423	8.935000	1585.116943
-3.341423	8.935000	1583.728394
-2.341423	8.935000	1575.773804
-1.341423	8.935000	1570.000000
-0.341423	8.935000	1570.000000
0.658577	8.935000	1570.000000
1.658577	8.935000	1581.234253
2.658577	8.935000	1579.214478
3.658577	8.935000	1581.238647
4.658577	8.935000	1582.949341
5.658577	8.935000	1581.834351
6.658577	8.935000	1581.017944
7.658577	8.935000	1583.829956
8.658577	8.935000	1582.376709
9.658577	8.935000	1584.930786
10.658577	8.935000	1584.748413
11.658577	8.935000	1581.924561
12.658577	8.935000	1582.665283
13.658577	8.935000	1578.899170
14.658577	8.935000	1574.142212
15.658577	8.935000	1574.402710
16.658577	8.935000	1570.000000
17.658577	8.935000	1576.099243
18.658577	8.935000	1584.411499
19.658577	8.935000	1584.312622
20.658577	8.935000	1576.686035
21.658577	8.935000	1579.358398
22.658577	8.935000	1580.025146
23.658577	8.935000	1574.658691
24.658577	8.935000	1581.735718
-39.341423	9.935000	1570.000000
-38.341423	9.935000	1570.000000
-37.341423	9.935000	1570.000000
-36.341423	9.935000	1570.000000
-35.341423	9.935000	1570.000000
-34.341423	9.935000	1570.000000
-33.341423	9.935000	1570.000000
-32.341423	9.935000	1570.000000
-31.341423	9.935000	1570.000000
-30.341423	9.935000	1570.000000
-29.341423	9.935000	1587.891968
-28.341423	9.935000	1574.597534
-27.341423	9.935000	1582.464478
-26.341423	9.935000	1583.600342
-25.341423	9.935000	1583.527222
-24.341423	9.935000	1581.334839
-23.341423	9.935000	1584.727661
-22.341423	9.935000	1584.667236
-21.341423	9.935000	1582.841797
-20.341423	9.935000	1583.338867
-19.341423	9.935000	1582.127686
-18.341423	9.935000	1583.853882
-17.341423	9.935000	1570.000000
-16.341423	9.935000	1574.020020
-15.341423	9.935000	1570.631714
-14.341423	9.935000	1572.353149
-13.341423	9.935000	1575.053833
-12.341423	9.935000	1581.224365
-11.341423	9.935000	1585.159424
-10.341423	9.935000	1585.818726
-9.341423	9.935000	1586.451050
-8.341423	9.935000	1585.991577
-7.341423	9.935000	1585.846680
-6.341423	9.935000	1570.000000
-5.341423	9.935000	1570.000000
-4.341423	9.935000	1587.349121
-3.341423	9.935000	1580.169189
-2.341423	9.935000	1580.777344
-1.341423	9.935000	1574.574707
-0.341423	9.935000	1571.065552
0.658577	9.935000	1579.140259
1.658577	9.935000	1581.199463
2.658577	9.935000	1582.929077
3.658577	9.935000	1583.381714
4.658577	9.935000	1580.870483
5.658577	9.935000	1581.753906
6.658577	9.935000	1581.333130
7.658577	9.935000	1582.989990
8.658577	9.935000	1582.162598
9.658577	9.935000	1584.898438
10.658577	9.935000	1584.566650
11.658577	9.935000	1584.244019
12.658577	9.935000	1582.169312
13.658577	9.935000	1583.385864
14.658577	9.935000	1585.364624
15.658577	9.935000	1595.879395
16.658577	9.935000	1589.292114
17.658577	9.935000	1585.232544
18.658577	9.935000	1595.911865
19.658577	9.935000	1573.562744
20.658577	9.935000	1579.607422
21.658577	9.935000	1579.677246
22.658577	9.935000	1581.142822
23.658577	9.935000	1584.102905
24.658577	9.935000	1570.000000
-39.341423	10.935000	1570.000000
-38.341423	10.935000	1570.000000
-37.341423	10.935000	1570.000000
-36.341423	10.935000	1570.000000
-35.341423	10.935000	1570.000000
-34.341423	10.935000	1570.000000
-33.341423	10.935000	1570.000000
-32.341423	10.935000	1570.000000
-31.341423	10.935000	1570.000000
-30.341423	10.935000	1570.000000
-29.341423	10.935000	1570.000000
-28.341423	10.935000	1573.599365
-27.341423	10.935000	1580.465088
-26.341423	10.935000	1583.681763
-25.341423	10.935000	1581.363647
-24.341423	10.935000	1583.145752
-23.341423	10.935000	1570.000000
-22.341423	10.935000	1583.074341
-21.341423	10.935000	1584.077393
-20.341423	10.935000	1576.927368
-19.341423	10.935000	1581.361206
-18.341423	10.935000	1577.771240
-17.341423	10.935000	1578.555786
-16.341423	10.935000	1584.607056
-15.341423	10.935000	1573.921021
-14.341423	10.935000	1571.336182
-13.341423	10.935000	1577.739990
-12.341423	10.935000	1583.083496
-11.341423	10.935000	1585.198975
-10.341423	10.935000	1586.319824
-9.341423	10.935000	1585.709473
-8.341423	10.935000	1585.987183
-7.341423	10.935000	1589.591187
-6.341423	10.935000	1570.000000
-5.341423	10.935000	1570.000000
-4.341423	10.935000	1570.000000
-3.341423	10.935000	1579.261841
-2.341423	10.935000	1584.130493
-1.341423	10.935000	1588.378540
-0.341423	10.935000	1570.000000
0.658577	10.935000	1577.249023
1.658577	10.935000	1582.493774
2.658577	10.935000	1583.426392
3.658577	10.935000	1588.066284
4.658577	10.935000	1580.708496
5.658577	10.935000	1580.689331
6.658577	10.935000	1581.414917
7.658577	10.935000	1586.487793
8.658577	10.935000	1577.873169
9.658577	10.935000	1582.950562
10.658577	10.935000	1582.394287
11.658577	10.935000	1582.992676
12.658577	10.935000	1582.171631
13.658577	10.935000	1583.729980
14.658577	10.935000	1570.000000
15.658577	10.935000	1599.587280
16.658577	10.935000	1600.000000
17.658577	10.935000	1584.715332
18.658577	10.935000	1570.000000
19.658577	10.935000	1589.427002
20.658577	10.935000	1573.573120
21.658577	10.935000	1579.476563
22.658577	10.935000	1570.000000
23.658577	10.935000	1585.716675
24.658577	10.935000	1580.790527
-39.341423	11.935000	1583.225708
-38.341423	11.935000	1570.000000
-37.341423	11.935000	1570.000000
-36.341423	11.935000	1570.000000
-35.341423	11.935000	1570.000000
-34.341423	11.935000	1570.000000
-33.341423	11.935000	1583.606689
-32.341423	11.935000	1570.000000
-31.341423	11.935000	1570.000000
-30.341423	11.935000	1570.000000
-29.341423	11.935000	1570.000000
-28.341423	11.935000	1571.331055
-27.341423	11.935000	1582.204346
-26.341423	11.935000	1583.757568
-25.341423	11.935000	1585.675293
-24.341423	11.935000	1583.214966
-23.341423	11.935000	1570.205322
-22.341423	11.935000	1582.543945
-21.341423	11.935000	1580.772461
-20.341423	11.935000	1582.170776
-19.341423	11.935000	1580.286011
-18.341423	11.935000	1582.496216
-17.341423	11.935000	1585.358765
-16.341423	11.935000	1584.602783
-15.341423	11.935000	1588.484619
-14.341423	11.935000	1574.687378
-13.341423	11.935000	1579.419800
-12.341423	11.935000	1583.653564
-11.341423	11.935000	1586.153076
-10.341423	11.935000	1587.013428
-9.341423	11.935000	1586.056519
-8.341423	11.935000	1585.735596
-7.341423	11.935000	1585.975342
-6.341423	11.935000	1585.805908
-5.341423	11.935000	1570.000000
-4.341423	11.935000	1570.000000
-3.341423	11.935000	1573.461182
-2.341423	11.935000	1579.190674
-1.341423	11.935000	1577.707275
-0.341423	11.935000	1571.176270
0.658577	11.935000	1581.312622
1.658577	11.935000	1582.427979
2.658577	11.935000	1583.606812
3.658577	11.935000	1581.298462
4.658577	11.935000	1580.919067
5.658577	11.935000	1582.273193
6.658577	11.935000	1571.310547
7.658577	11.935000	1586.633179
8.658577	11.935000	1570.000000
9.658577	11.935000	1583.375488
10.658577	11.935000	1581.507446
11.658577	11.935000	1582.804199
12.658577	11.935000	1576.974609
13.658577	11.935000	1585.943726
14.658577	11.935000	1594.870972
15.658577	11.935000	1570.000000
16.658577	11.935000	1586.455322
17.658577	11.935000	1596.089111
18.658577	11.935000	1600.000000
19.658577	11.935000	1598.377563
20.658577	11.935000	1583.412476
21.658577	11.935000	1577.843872
22.658577	11.935000	1573.594604
23.658577	11.935000	1575.693726
24.658577	11.935000	1570.000000
-39.341423	12.935000	1570.000000
-38.341423	12.935000	1570.000000
-37.341423	12.935000	1570.000000
-36.341423	12.935000	1570.000000
-35.341423	12.935000	1570.000000
-34.341423	12.935000	1570.000000
-33.341423	12.935000	1570.000000
-32.341423	12.935000	1570.000000
-31.341423	12.935000	1570.000000
-30.341423	12.935000	1570.000000
-29.341423	12.935000	1570.000000
-28.341423	12.935000	1570.710205
-27.341423	12.935000	1585.942871
-26.341423	12.935000	1586.762329
-25.341423	12.935000	1586.339355
-24.341423	12.935000	1570.010376
-23.341423	12.935000	1579.152954
-22.341423	12.935000	1570.000000
-21.341423	12.935000	1573.825195
-20.341423	12.935000	1582.082764
-19.341423	12.935000	1572.031128
-18.341423	12.935000	1584.099121
-17.341423	12.935000	1585.982544
-16.341423	12.935000	1585.086060
-15.341423	12.935000	1576.484863
-14.341423	12.935000	1578.496582
-13.341423	12.935000	1582.068115
-12.341423	12.935000	1582.758667
-11.341423	12.935000	1583.911011
-10.341423	12.935000	1583.811157
-9.341423	12.935000	1584.577026
-8.341423	12.935000	1582.204956
-7.341423	12.935000	1583.660156
-6.341423	12.935000	1584.131592
-5.341423	12.935000	1579.271851
-4.341423	12.935000	1572.452515
-3.341423	12.935000	1579.466797
-2.341423	12.935000	1583.753174
-1.341423	12.935000	1583.757813
-0.341423	12.935000	1572.516113
0.658577	12.935000	1580.491089
1.658577	12.935000	1582.810791
2.658577	12.935000	1582.463501
3.658577	12.935000	1582.859863
4.658577	12.935000	1581.737305
5.658577	12.935000	1578.697144
6.658577	12.935000	1570.000000
7.658577	12.935000	1570.000000
8.658577	12.935000	1586.076904
9.658577	12.935000	1587.221558
10.658577	12.935000	1581.950806
11.658577	12.935000	1582.486206
12.658577	12.935000	1583.628662
13.658577	12.935000	1570.000000
14.658577	12.935000	1570.000000
15.658577	12.935000	1600.000000
16.658577	12.935000	1598.754150
17.658577	12.935000	1577.699585
18.658577	12.935000	1586.628540
19.658577	12.935000	1600.000000
20.658577	12.935000	1579.339233
21.658577	12.935000	1591.134521
22.658577	12.935000	1581.541382
23.658577	12.935000	1580.741333
24.658577	12.935000	1580.332153
-39.341423	13.935000	1570.000000
-38.341423	13.935000	1570.000000
-37.341423	13.935000	1570.000000
-36.341423	13.935000	1570.000000
-35.341423	13.935000	1570.000000
-34.341423	13.935000	1570.000000
-33.341423	13.935000	1570.000000
-32.341423	13.935000	1570.000000
-31.341423	13.935000	1570.000000
-30.341423	13.935000	1570.000000
-29.341423	13.935000	1570.000000
-28.341423	13.935000	1586.789307
-27.341423	13.935000	1587.537354
-26.341423	13.935000	1588.867676
-25.341423	13.935000	1586.248779
-24.341423	13.935000	1575.681519
-23.341423	13.935000	1588.412842
-22.341423	13.935000	1584.251221
-21.341423	13.935000	1575.402344
-20.341423	13.935000	1574.981812
-19.341423	13.935000	1570.000000
-18.341423	13.935000	1570.000000
-17.341423	13.935000	1581.433960
-16.341423	13.935000	1584.007813
-15.341423	13.935000	1576.326172
-14.341423	13.935000	1570.000000
-13.341423	13.935000	1574.602539
-12.341423	13.935000	1583.125244
-11.341423	13.935000	1570.000000
-10.341423	13.935000	1576.987305
-9.341423	13.935000	1576.914185
-8.341423	13.935000	1581.890747
-7.341423	13.935000	1583.158081
-6.341423	13.935000	1570.000000
-5.341423	13.935000	1579.852539
-4.341423	13.935000	1571.694214
-3.341423	13.935000	1573.835938
-2.341423	13.935000	1584.845581
-1.341423	13.935000	1584.154785
-0.341423	13.935000	1575.434204
0.658577	13.935000	1581.145508
1.658577	13.935000	1582.999146
2.658577	13.935000	1581.110962
3.658577	13.935000	1577.220581
4.658577	13.935000	1587.873169
5.658577	13.935000	1585.194824
6.658577	13.935000	1570.000000
7.658577	13.935000	1570.000000
8.658577	13.935000	1570.000000
9.658577	13.935000	1582.862183
10.658577	13.935000	1584.440552
11.658577	13.935000	1584.047363
12.658577	13.935000	1583.052856
13.658577	13.935000	1585.373779
14.658577	13.935000	1592.091797
15.658577	13.935000	1585.882080
16.658577	13.935000	1600.000000
17.658577	13.935000	1570.000000
18.658577	13.935000	1579.217896
19.658577	13.935000	1570.000000
20.658577	13.935000	1570.000000
21.658577	13.935000	1600.000000
22.658577	13.935000	1576.414795
23.658577	13.935000	1598.319458
24.658577	13.935000	1588.669067
-39.341423	14.935000	1570.000000
-38.341423	14.935000	1570.000000
-37.341423	14.935000	1570.000000
-36.341423	14.935000	1570.000000
-35.341423	14.935000	1570.000000
-34.341423	14.935000	1570.000000
-33.341423	14.935000	1570.000000
-32.341423	14.935000	1570.000000
-31.341423	14.935000	1570.000000
-30.341423	14.935000	1570.000000
-29.341423	14.935000	1570.000000
-28.341423	14.935000	1587.672241
-27.341423	14.935000	1586.727783
-26.341423	14.935000	1587.527466
-25.341423	14.935000	1587.924438
-24.341423	14.935000	1585.030396
-23.341423	14.935000	1582.274780
-22.341423	14.935000	1584.312378
-21.341423	14.935000	1575.159302
-20.341423	14.935000	1579.680542
-19.341423	14.935000	1571.684570
-18.341423	14.935000	1570.000000
-17.341423	14.935000	1582.983765
-16.341423	14.935000	1570.000000
-15.341423	14.935000	1574.103638
-14.341423	14.935000	1570.000000
-13.341423	14.935000	1570.000000
-12.341423	14.935000	1570.000000
-11.341423	14.935000	1570.000000
-10.341423	14.935000	1570.000000
-9.341423	14.935000	1586.858521
-8.341423	14.935000	1579.995483
-7.341423	14.935000	1576.674194
-6.341423	14.935000	1577.845215
-5.341423	14.935000	1582.942261
-4.341423	14.935000	1583.422241
-3.341423	14.935000	1577.649902
-2.341423	14.935000	1570.000000
-1.341423	14.935000	1578.679810
-0.341423	14.935000	1587.134644
0.658577	14.935000	1583.557129
1.658577	14.935000	1583.134521
2.658577	14.935000	1582.146240
3.658577	14.935000	1574.317505
4.658577	14.935000	1582.768311
5.658577	14.935000	1578.728638
6.658577	14.935000	1586.118530
7.658577	14.935000	1575.148193
8.658577	14.935000	1583.930786
9.658577	14.935000	1583.045776
10.658577	14.935000	1584.047363
11.658577	14.935000	1583.515259
12.658577	14.935000	1578.300537
13.658577	14.935000	1584.455566
14.658577	14.935000	1577.132202
15.658577	14.935000	1600.000000
16.658577	14.935000	1591.651123
17.658577	14.935000	1600.000000
18.658577	14.935000	1573.663574
19.658577	14.935000	1573.805420
20.658577	14.935000	1579.033936
21.658577	14.935000	1577.943726
22.658577	14.935000	1600.000000
23.658577	14.935000	1599.099731
24.658577	14.935000	1579.340576
-39.341423	15.935000	1570.000000
-38.341423	15.935000	1570.000000
-37.341423	15.935000	1570.000000
-36.341423	15.935000	1570.000000
-35.341423	15.935000	1570.000000
-34.341423	15.935000	1570.000000
-33.341423	15.935000	1570.000000
-32.341423	15.935000	1570.000000
-31.341423	15.935000	1571.983887
-30.341423	15.935000	1581.780884
-29.341423	15.935000	1579.710815
-28.341423	15.935000	1583.185181
-27.341423	15.935000	1585.787842
-26.341423	15.935000	1587.505981
-25.341423	15.935000	1587.782227
-24.341423	15.935000	1585.969727
-23.341423	15.935000	1586.735352
-22.341423	15.935000	1587.218506
-21.341423	15.935000	1585.783569
-20.341423	15.935000	1583.485718
-19.341423	15.935000	1583.149292
-18.341423	15.935000	1570.000000
-17.341423	15.935000	1570.000000
-16.341423	15.935000	1570.000000
-15.341423	15.935000	1570.000000
-14.341423	15.935000	1570.000000
-13.341423	15.935000	1570.000000
-12.341423	15.935000	1570.000000
-11.341423	15.935000	1570.000000
-10.341423	15.935000	1586.470215
-9.341423	15.935000	1581.204224
-8.341423	15.935000	1584.625366
-7.341423	15.935000	1570.390015
-6.341423	15.935000	1583.355957
-5.341423	15.935000	1582.255249
-4.341423	15.935000	1581.449829
-3.341423	15.935000	1582.388184
-2.341423	15.935000	1581.909180
-1.341423	15.935000	1576.395874
-0.341423	15.935000	1584.490356
0.658577	15.935000	1584.727417
1.658577	15.935000	1582.825195
2.658577	15.935000	1580.826904
3.658577	15.935000	1579.223877
4.658577	15.935000	1591.578247
5.658577	15.935000	1600.000000
6.658577	15.935000	1589.087402
7.658577	15.935000	1589.336426
8.658577	15.935000	1584.891724
9.658577	15.935000	1584.293457
10.658577	15.935000	1584.070923
11.658577	15.935000	1583.142944
12.658577	15.935000	1575.631348
13.658577	15.935000	1573.288452
14.658577	15.935000	1579.370850
15.658577	15.935000	1600.000000
16.658577	15.935000	1600.000000
17.658577	15.935000	1570.000000
18.658577	15.935000	1586.548340
19.658577	15.935000	1600.000000
20.658577	15.935000	1600.000000
21.658577	15.935000	1600.000000
22.658577	15.935000	1570.000000
23.658577	15.935000	1599.738647
24.658577	15.935000	1570.956787
