#XList		#YList		#IList		
-39.341423	-21.065000	0.000000
-38.341423	-21.065000	0.000000
-37.341423	-21.065000	0.000000
-36.341423	-21.065000	10.483131
-35.341423	-21.065000	0.000000
-34.341423	-21.065000	0.000000
-33.341423	-21.065000	0.000000
-32.341423	-21.065000	0.000000
-31.341423	-21.065000	0.000000
-30.341423	-21.065000	0.000000
-29.341423	-21.065000	0.000000
-28.341423	-21.065000	10.472929
-27.341423	-21.065000	4.476960
-26.341423	-21.065000	11.067375
-25.341423	-21.065000	21.475403
-24.341423	-21.065000	32.744034
-23.341423	-21.065000	36.374130
-22.341423	-21.065000	34.135590
-21.341423	-21.065000	17.119766
-20.341423	-21.065000	34.086441
-19.341423	-21.065000	34.589558
-18.341423	-21.065000	33.476971
-17.341423	-21.065000	29.358038
-16.341423	-21.065000	0.000000
-15.341423	-21.065000	0.000000
-14.341423	-21.065000	0.000000
-13.341423	-21.065000	0.000000
-12.341423	-21.065000	0.000000
-11.341423	-21.065000	26.675966
-10.341423	-21.065000	35.787018
-9.341423	-21.065000	32.222828
-8.341423	-21.065000	16.029985
-7.341423	-21.065000	0.000000
-6.341423	-21.065000	3.642432
-5.341423	-21.065000	9.721407
-4.341423	-21.065000	28.941574
-3.341423	-21.065000	28.920328
-2.341423	-21.065000	11.660754
-1.341423	-21.065000	0.000000
-0.341423	-21.065000	0.000000
0.658577	-21.065000	0.355217
1.658577	-21.065000	8.297249
2.658577	-21.065000	10.203262
3.658577	-21.065000	15.978222
4.658577	-21.065000	0.000000
5.658577	-21.065000	8.132603
6.658577	-21.065000	36.019512
7.658577	-21.065000	35.349648
8.658577	-21.065000	36.894634
9.658577	-21.065000	29.349638
10.658577	-21.065000	21.511082
11.658577	-21.065000	13.115128
12.658577	-21.065000	25.254368
13.658577	-21.065000	11.061869
14.658577	-21.065000	0.000000
15.658577	-21.065000	0.000000
16.658577	-21.065000	0.000000
17.658577	-21.065000	0.000000
18.658577	-21.065000	0.000000
19.658577	-21.065000	0.000000
20.658577	-21.065000	11.067535
21.658577	-21.065000	29.032949
22.658577	-21.065000	32.228088
23.658577	-21.065000	33.507290
24.658577	-21.065000	34.784359
-39.341423	-20.065000	0.000000
-38.341423	-20.065000	0.000000
-37.341423	-20.065000	0.000000
-36.341423	-20.065000	0.000000
-35.341423	-20.065000	0.000000
-34.341423	-20.065000	89.811584
-33.341423	-20.065000	5.360963
-32.341423	-20.065000	0.000000
-31.341423	-20.065000	0.000000
-30.341423	-20.065000	0.000000
-29.341423	-20.065000	0.000000
-28.341423	-20.065000	1.006021
-27.341423	-20.065000	0.000000
-26.341423	-20.065000	137.340866
-25.341423	-20.065000	0.000000
-24.341423	-20.065000	13.772933
-23.341423	-20.065000	26.449482
-22.341423	-20.065000	33.781052
-21.341423	-20.065000	27.742596
-20.341423	-20.065000	9.276231
-19.341423	-20.065000	9.486783
-18.341423	-20.065000	15.623300
-17.341423	-20.065000	0.000000
-16.341423	-20.065000	0.000000
-15.341423	-20.065000	0.000000
-14.341423	-20.065000	0.000000
-13.341423	-20.065000	0.000000
-12.341423	-20.065000	0.000000
-11.341423	-20.065000	32.910877
-10.341423	-20.065000	29.119228
-9.341423	-20.065000	0.000000
-8.341423	-20.065000	0.000000
-7.341423	-20.065000	1.072012
-6.341423	-20.065000	9.916734
-5.341423	-20.065000	6.562114
-4.341423	-20.065000	28.521925
-3.341423	-20.065000	29.971254
-2.341423	-20.065000	32.586193
-1.341423	-20.065000	0.000000
-0.341423	-20.065000	0.000000
0.658577	-20.065000	0.000000
1.658577	-20.065000	0.000000
2.658577	-20.065000	0.000000
3.658577	-20.065000	2.887646
4.658577	-20.065000	1.246223
5.658577	-20.065000	20.608545
6.658577	-20.065000	37.910686
7.658577	-20.065000	33.723335
8.658577	-20.065000	34.963436
9.658577	-20.065000	21.547152
10.658577	-20.065000	11.247556
11.658577	-20.065000	12.921768
12.658577	-20.065000	8.571949
13.658577	-20.065000	0.000000
14.658577	-20.065000	0.000000
15.658577	-20.065000	0.000000
16.658577	-20.065000	0.000000
17.658577	-20.065000	20.944004
18.658577	-20.065000	0.000000
19.658577	-20.065000	0.000000
20.658577	-20.065000	0.000000
21.658577	-20.065000	13.287188
22.658577	-20.065000	33.862751
23.658577	-20.065000	36.301430
24.658577	-20.065000	37.451481
-39.341423	-19.065000	0.000000
-38.341423	-19.065000	0.000000
-37.341423	-19.065000	0.000000
-36.341423	-19.065000	0.000000
-35.341423	-19.065000	0.000000
-34.341423	-19.065000	30.042149
-33.341423	-19.065000	17.235943
-32.341423	-19.065000	0.000000
-31.341423	-19.065000	0.000000
-30.341423	-19.065000	0.000000
-29.341423	-19.065000	0.000000
-28.341423	-19.065000	0.000000
-27.341423	-19.065000	0.000000
-26.341423	-19.065000	0.000000
-25.341423	-19.065000	0.000000
-24.341423	-19.065000	18.847729
-23.341423	-19.065000	0.000000
-22.341423	-19.065000	0.000000
-21.341423	-19.065000	0.000000
-20.341423	-19.065000	0.000000
-19.341423	-19.065000	0.000000
-18.341423	-19.065000	9.081945
-17.341423	-19.065000	0.000000
-16.341423	-19.065000	0.000000
-15.341423	-19.065000	0.000000
-14.341423	-19.065000	0.000000
-13.341423	-19.065000	0.000000
-12.341423	-19.065000	0.000000
-11.341423	-19.065000	21.861113
-10.341423	-19.065000	0.000000
-9.341423	-19.065000	0.000000
-8.341423	-19.065000	186.210648
-7.341423	-19.065000	0.000000
-6.341423	-19.065000	0.000000
-5.341423	-19.065000	9.008625
-4.341423	-19.065000	0.000000
-3.341423	-19.065000	0.000000
-2.341423	-19.065000	14.993964
-1.341423	-19.065000	0.000000
-0.341423	-19.065000	0.000000
0.658577	-19.065000	0.000000
1.658577	-19.065000	0.000000
2.658577	-19.065000	0.000000
3.658577	-19.065000	0.000000
4.658577	-19.065000	5.759038
5.658577	-19.065000	32.379147
6.658577	-19.065000	34.964848
7.658577	-19.065000	30.146225
8.658577	-19.065000	19.517241
9.658577	-19.065000	14.967277
10.658577	-19.065000	5.355343
11.658577	-19.065000	0.000000
12.658577	-19.065000	14.682942
13.658577	-19.065000	0.000000
14.658577	-19.065000	14.124864
15.658577	-19.065000	26.153936
16.658577	-19.065000	11.634748
17.658577	-19.065000	26.433889
18.658577	-19.065000	0.000000
19.658577	-19.065000	0.000000
20.658577	-19.065000	0.000000
21.658577	-19.065000	18.091637
22.658577	-19.065000	33.653084
23.658577	-19.065000	34.893482
24.658577	-19.065000	34.741619
-39.341423	-18.065000	0.000000
-38.341423	-18.065000	0.000000
-37.341423	-18.065000	0.000000
-36.341423	-18.065000	0.000000
-35.341423	-18.065000	7.446739
-34.341423	-18.065000	34.294506
-33.341423	-18.065000	24.722208
-32.341423	-18.065000	0.000000
-31.341423	-18.065000	0.000000
-30.341423	-18.065000	0.000000
-29.341423	-18.065000	0.000000
-28.341423	-18.065000	0.000000
-27.341423	-18.065000	0.000000
-26.341423	-18.065000	0.000000
-25.341423	-18.065000	0.000000
-24.341423	-18.065000	0.000000
-23.341423	-18.065000	0.000000
-22.341423	-18.065000	0.000000
-21.341423	-18.065000	0.000000
-20.341423	-18.065000	0.000000
-19.341423	-18.065000	10.185635
-18.341423	-18.065000	97.445831
-17.341423	-18.065000	0.000000
-16.341423	-18.065000	0.000000
-15.341423	-18.065000	0.000000
-14.341423	-18.065000	0.000000
-13.341423	-18.065000	0.000000
-12.341423	-18.065000	0.000000
-11.341423	-18.065000	0.000000
-10.341423	-18.065000	0.000000
-9.341423	-18.065000	0.000000
-8.341423	-18.065000	15.316814
-7.341423	-18.065000	0.000000
-6.341423	-18.065000	0.000000
-5.341423	-18.065000	25.940075
-4.341423	-18.065000	9.006940
-3.341423	-18.065000	0.000000
-2.341423	-18.065000	0.000000
-1.341423	-18.065000	0.000000
-0.341423	-18.065000	0.000000
0.658577	-18.065000	0.000000
1.658577	-18.065000	0.000000
2.658577	-18.065000	0.000000
3.658577	-18.065000	0.000000
4.658577	-18.065000	0.000000
5.658577	-18.065000	27.643433
6.658577	-18.065000	23.881779
7.658577	-18.065000	0.000000
8.658577	-18.065000	0.000000
9.658577	-18.065000	0.000000
10.658577	-18.065000	0.000000
11.658577	-18.065000	0.000000
12.658577	-18.065000	0.000000
13.658577	-18.065000	7.388925
14.658577	-18.065000	0.000000
15.658577	-18.065000	10.040396
16.658577	-18.065000	13.173273
17.658577	-18.065000	11.740657
18.658577	-18.065000	0.000000
19.658577	-18.065000	17.239008
20.658577	-18.065000	35.303749
21.658577	-18.065000	24.464716
22.658577	-18.065000	0.000000
23.658577	-18.065000	0.000000
24.658577	-18.065000	19.331997
-39.341423	-17.065000	0.000000
-38.341423	-17.065000	0.000000
-37.341423	-17.065000	0.000000
-36.341423	-17.065000	29.749664
-35.341423	-17.065000	34.502197
-34.341423	-17.065000	33.773327
-33.341423	-17.065000	35.581543
-32.341423	-17.065000	12.230765
-31.341423	-17.065000	0.000000
-30.341423	-17.065000	0.000000
-29.341423	-17.065000	0.000000
-28.341423	-17.065000	29.844580
-27.341423	-17.065000	0.000000
-26.341423	-17.065000	0.000000
-25.341423	-17.065000	0.000000
-24.341423	-17.065000	0.000000
-23.341423	-17.065000	0.000000
-22.341423	-17.065000	3.943975
-21.341423	-17.065000	0.000000
-20.341423	-17.065000	22.702032
-19.341423	-17.065000	25.486422
-18.341423	-17.065000	34.341232
-17.341423	-17.065000	17.296783
-16.341423	-17.065000	0.000000
-15.341423	-17.065000	0.000000
-14.341423	-17.065000	0.000000
-13.341423	-17.065000	0.000000
-12.341423	-17.065000	118.069321
-11.341423	-17.065000	0.000000
-10.341423	-17.065000	0.000000
-9.341423	-17.065000	0.000000
-8.341423	-17.065000	0.000000
-7.341423	-17.065000	28.119959
-6.341423	-17.065000	0.000000
-5.341423	-17.065000	1449.804199
-4.341423	-17.065000	16.604763
-3.341423	-17.065000	7.750365
-2.341423	-17.065000	0.000000
-1.341423	-17.065000	0.000000
-0.341423	-17.065000	0.000000
0.658577	-17.065000	0.000000
1.658577	-17.065000	0.000000
2.658577	-17.065000	0.000000
3.658577	-17.065000	0.000000
4.658577	-17.065000	6.168574
5.658577	-17.065000	27.852718
6.658577	-17.065000	88.276161
7.658577	-17.065000	0.000000
8.658577	-17.065000	0.000000
9.658577	-17.065000	0.000000
10.658577	-17.065000	0.000000
11.658577	-17.065000	0.000000
12.658577	-17.065000	0.000000
13.658577	-17.065000	8.753005
14.658577	-17.065000	12.194975
15.658577	-17.065000	0.000000
16.658577	-17.065000	18.991261
17.658577	-17.065000	11.553633
18.658577	-17.065000	9.283985
19.658577	-17.065000	5.249078
20.658577	-17.065000	33.826385
21.658577	-17.065000	20.449556
22.658577	-17.065000	14.880738
23.658577	-17.065000	0.000000
24.658577	-17.065000	16.900396
-39.341423	-16.065000	0.000000
-38.341423	-16.065000	289.835785
-37.341423	-16.065000	27.285189
-36.341423	-16.065000	27.946810
-35.341423	-16.065000	23.658075
-34.341423	-16.065000	22.008814
-33.341423	-16.065000	0.000000
-32.341423	-16.065000	0.000000
-31.341423	-16.065000	0.000000
-30.341423	-16.065000	0.000000
-29.341423	-16.065000	0.000000
-28.341423	-16.065000	0.000000
-27.341423	-16.065000	0.000000
-26.341423	-16.065000	0.000000
-25.341423	-16.065000	0.000000
-24.341423	-16.065000	939.754822
-23.341423	-16.065000	6.274965
-22.341423	-16.065000	0.000000
-21.341423	-16.065000	7.774401
-20.341423	-16.065000	32.988289
-19.341423	-16.065000	33.434578
-18.341423	-16.065000	32.543053
-17.341423	-16.065000	25.183743
-16.341423	-16.065000	0.000000
-15.341423	-16.065000	0.000000
-14.341423	-16.065000	0.000000
-13.341423	-16.065000	0.000000
-12.341423	-16.065000	0.000000
-11.341423	-16.065000	11.417226
-10.341423	-16.065000	8.462601
-9.341423	-16.065000	0.000000
-8.341423	-16.065000	18.677992
-7.341423	-16.065000	16.339510
-6.341423	-16.065000	1.161778
-5.341423	-16.065000	0.000000
-4.341423	-16.065000	0.000000
-3.341423	-16.065000	14.452034
-2.341423	-16.065000	0.000000
-1.341423	-16.065000	0.000000
-0.341423	-16.065000	0.000000
0.658577	-16.065000	0.000000
1.658577	-16.065000	0.000000
2.658577	-16.065000	0.000000
3.658577	-16.065000	0.000000
4.658577	-16.065000	4.226327
5.658577	-16.065000	9.375045
6.658577	-16.065000	0.000000
7.658577	-16.065000	0.000000
8.658577	-16.065000	0.000000
9.658577	-16.065000	0.000000
10.658577	-16.065000	0.000000
11.658577	-16.065000	0.000000
12.658577	-16.065000	0.000000
13.658577	-16.065000	28.861538
14.658577	-16.065000	25.568987
15.658577	-16.065000	34.373398
16.658577	-16.065000	15.354120
17.658577	-16.065000	2.298564
18.658577	-16.065000	5.278078
19.658577	-16.065000	11.283548
20.658577	-16.065000	29.506495
21.658577	-16.065000	11.672760
22.658577	-16.065000	18.054203
23.658577	-16.065000	0.000000
24.658577	-16.065000	20.194391
-39.341423	-15.065000	8.062482
-38.341423	-15.065000	29.909918
-37.341423	-15.065000	30.759882
-36.341423	-15.065000	0.000000
-35.341423	-15.065000	0.000000
-34.341423	-15.065000	0.000000
-33.341423	-15.065000	0.000000
-32.341423	-15.065000	0.000000
-31.341423	-15.065000	0.000000
-30.341423	-15.065000	0.000000
-29.341423	-15.065000	0.000000
-28.341423	-15.065000	0.000000
-27.341423	-15.065000	0.000000
-26.341423	-15.065000	0.000000
-25.341423	-15.065000	0.000000
-24.341423	-15.065000	0.000000
-23.341423	-15.065000	0.000000
-22.341423	-15.065000	7.186708
-21.341423	-15.065000	6.845635
-20.341423	-15.065000	32.046623
-19.341423	-15.065000	35.288925
-18.341423	-15.065000	0.000000
-17.341423	-15.065000	2000.000000
-16.341423	-15.065000	0.000000
-15.341423	-15.065000	0.000000
-14.341423	-15.065000	0.000000
-13.341423	-15.065000	0.000000
-12.341423	-15.065000	6.469373
-11.341423	-15.065000	21.320717
-10.341423	-15.065000	4.535612
-9.341423	-15.065000	0.000000
-8.341423	-15.065000	0.000000
-7.341423	-15.065000	0.000000
-6.341423	-15.065000	8.619762
-5.341423	-15.065000	0.000000
-4.341423	-15.065000	0.000000
-3.341423	-15.065000	0.000000
-2.341423	-15.065000	0.000000
-1.341423	-15.065000	0.000000
-0.341423	-15.065000	0.000000
0.658577	-15.065000	0.000000
1.658577	-15.065000	0.000000
2.658577	-15.065000	0.000000
3.658577	-15.065000	0.000000
4.658577	-15.065000	0.000000
5.658577	-15.065000	0.000000
6.658577	-15.065000	0.000000
7.658577	-15.065000	0.000000
8.658577	-15.065000	0.000000
9.658577	-15.065000	0.000000
10.658577	-15.065000	0.000000
11.658577	-15.065000	0.000000
12.658577	-15.065000	30.736252
13.658577	-15.065000	29.682278
14.658577	-15.065000	15.823376
15.658577	-15.065000	35.399769
16.658577	-15.065000	25.937004
17.658577	-15.065000	12.063370
18.658577	-15.065000	0.000000
19.658577	-15.065000	28.300243
20.658577	-15.065000	29.477180
21.658577	-15.065000	49.374287
22.658577	-15.065000	0.000000
23.658577	-15.065000	10.320319
24.658577	-15.065000	25.318895
-39.341423	-14.065000	28.237337
-38.341423	-14.065000	24.510714
-37.341423	-14.065000	0.000000
-36.341423	-14.065000	0.000000
-35.341423	-14.065000	0.000000
-34.341423	-14.065000	0.000000
-33.341423	-14.065000	0.000000
-32.341423	-14.065000	0.000000
-31.341423	-14.065000	0.000000
-30.341423	-14.065000	0.000000
-29.341423	-14.065000	0.000000
-28.341423	-14.065000	0.000000
-27.341423	-14.065000	0.000000
-26.341423	-14.065000	0.000000
-25.341423	-14.065000	0.000000
-24.341423	-14.065000	0.000000
-23.341423	-14.065000	0.000000
-22.341423	-14.065000	0.000000
-21.341423	-14.065000	24.017702
-20.341423	-14.065000	19.209349
-19.341423	-14.065000	34.244621
-18.341423	-14.065000	15.212705
-17.341423	-14.065000	21.826904
-16.341423	-14.065000	0.000000
-15.341423	-14.065000	0.000000
-14.341423	-14.065000	0.000000
-13.341423	-14.065000	15.110834
-12.341423	-14.065000	205.342255
-11.341423	-14.065000	10.387208
-10.341423	-14.065000	0.000000
-9.341423	-14.065000	0.000000
-8.341423	-14.065000	0.000000
-7.341423	-14.065000	0.000000
-6.341423	-14.065000	0.000000
-5.341423	-14.065000	0.000000
-4.341423	-14.065000	0.000000
-3.341423	-14.065000	0.000000
-2.341423	-14.065000	0.000000
-1.341423	-14.065000	0.000000
-0.341423	-14.065000	0.000000
0.658577	-14.065000	0.000000
1.658577	-14.065000	0.000000
2.658577	-14.065000	0.000000
3.658577	-14.065000	0.000000
4.658577	-14.065000	6.363623
5.658577	-14.065000	0.000000
6.658577	-14.065000	0.000000
7.658577	-14.065000	0.000000
8.658577	-14.065000	0.000000
9.658577	-14.065000	0.000000
10.658577	-14.065000	111.105484
11.658577	-14.065000	35.564999
12.658577	-14.065000	33.848598
13.658577	-14.065000	7.641765
14.658577	-14.065000	9.079630
15.658577	-14.065000	34.695976
16.658577	-14.065000	34.759315
17.658577	-14.065000	32.321842
18.658577	-14.065000	26.411100
19.658577	-14.065000	20.444803
20.658577	-14.065000	7.898002
21.658577	-14.065000	5.737255
22.658577	-14.065000	0.000000
23.658577	-14.065000	10.355615
24.658577	-14.065000	22.100277
-39.341423	-13.065000	0.000000
-38.341423	-13.065000	0.000000
-37.341423	-13.065000	0.000000
-36.341423	-13.065000	0.000000
-35.341423	-13.065000	0.000000
-34.341423	-13.065000	0.000000
-33.341423	-13.065000	0.000000
-32.341423	-13.065000	0.000000
-31.341423	-13.065000	0.000000
-30.341423	-13.065000	0.000000
-29.341423	-13.065000	0.000000
-28.341423	-13.065000	0.000000
-27.341423	-13.065000	0.000000
-26.341423	-13.065000	0.000000
-25.341423	-13.065000	0.000000
-24.341423	-13.065000	0.000000
-23.341423	-13.065000	0.000000
-22.341423	-13.065000	0.000000
-21.341423	-13.065000	4.664998
-20.341423	-13.065000	18.333256
-19.341423	-13.065000	5.159335
-18.341423	-13.065000	7.546442
-17.341423	-13.065000	7.516199
-16.341423	-13.065000	5.640725
-15.341423	-13.065000	20.554710
-14.341423	-13.065000	31.314981
-13.341423	-13.065000	34.052937
-12.341423	-13.065000	22.763151
-11.341423	-13.065000	0.000000
-10.341423	-13.065000	0.000000
-9.341423	-13.065000	0.000000
-8.341423	-13.065000	0.000000
-7.341423	-13.065000	0.000000
-6.341423	-13.065000	0.000000
-5.341423	-13.065000	0.000000
-4.341423	-13.065000	0.000000
-3.341423	-13.065000	0.000000
-2.341423	-13.065000	0.000000
-1.341423	-13.065000	0.000000
-0.341423	-13.065000	0.000000
0.658577	-13.065000	0.000000
1.658577	-13.065000	0.000000
2.658577	-13.065000	0.000000
3.658577	-13.065000	0.000000
4.658577	-13.065000	0.000000
5.658577	-13.065000	1.977887
6.658577	-13.065000	15.996481
7.658577	-13.065000	0.000000
8.658577	-13.065000	0.000000
9.658577	-13.065000	40.263908
10.658577	-13.065000	32.410122
11.658577	-13.065000	35.826595
12.658577	-13.065000	29.997105
13.658577	-13.065000	0.000000
14.658577	-13.065000	8.550475
15.658577	-13.065000	29.545601
16.658577	-13.065000	28.659523
17.658577	-13.065000	15.109750
18.658577	-13.065000	59.834396
19.658577	-13.065000	0.000000
20.658577	-13.065000	0.000000
21.658577	-13.065000	0.000000
22.658577	-13.065000	0.000000
23.658577	-13.065000	0.000000
24.658577	-13.065000	0.000000
-39.341423	-12.065000	126.778770
-38.341423	-12.065000	0.000000
-37.341423	-12.065000	0.000000
-36.341423	-12.065000	0.000000
-35.341423	-12.065000	0.000000
-34.341423	-12.065000	0.000000
-33.341423	-12.065000	0.000000
-32.341423	-12.065000	0.000000
-31.341423	-12.065000	0.000000
-30.341423	-12.065000	0.000000
-29.341423	-12.065000	0.000000
-28.341423	-12.065000	0.000000
-27.341423	-12.065000	9.455647
-26.341423	-12.065000	0.000000
-25.341423	-12.065000	0.000000
-24.341423	-12.065000	9.960114
-23.341423	-12.065000	2.915632
-22.341423	-12.065000	0.856248
-21.341423	-12.065000	0.000000
-20.341423	-12.065000	0.000000
-19.341423	-12.065000	0.000000
-18.341423	-12.065000	2000.000000
-17.341423	-12.065000	4.938269
-16.341423	-12.065000	0.000000
-15.341423	-12.065000	10.244811
-14.341423	-12.065000	28.442640
-13.341423	-12.065000	33.130325
-12.341423	-12.065000	6.136269
-11.341423	-12.065000	0.000000
-10.341423	-12.065000	0.000000
-9.341423	-12.065000	0.000000
-8.341423	-12.065000	0.000000
-7.341423	-12.065000	0.000000
-6.341423	-12.065000	0.000000
-5.341423	-12.065000	0.000000
-4.341423	-12.065000	0.000000
-3.341423	-12.065000	0.000000
-2.341423	-12.065000	0.000000
-1.341423	-12.065000	0.000000
-0.341423	-12.065000	0.000000
0.658577	-12.065000	0.000000
1.658577	-12.065000	0.000000
2.658577	-12.065000	0.000000
3.658577	-12.065000	0.000000
4.658577	-12.065000	0.000000
5.658577	-12.065000	0.000000
6.658577	-12.065000	4.802654
7.658577	-12.065000	43.686466
8.658577	-12.065000	130.459320
9.658577	-12.065000	32.490158
10.658577	-12.065000	35.846638
11.658577	-12.065000	35.678497
12.658577	-12.065000	9.958548
13.658577	-12.065000	96.068497
14.658577	-12.065000	11.157264
15.658577	-12.065000	24.656219
16.658577	-12.065000	16.025440
17.658577	-12.065000	14.223342
18.658577	-12.065000	0.000000
19.658577	-12.065000	0.000000
20.658577	-12.065000	0.000000
21.658577	-12.065000	0.000000
22.658577	-12.065000	0.000000
23.658577	-12.065000	0.000000
24.658577	-12.065000	10.743211
-39.341423	-11.065000	0.000000
-38.341423	-11.065000	0.000000
-37.341423	-11.065000	0.000000
-36.341423	-11.065000	0.000000
-35.341423	-11.065000	0.000000
-34.341423	-11.065000	0.000000
-33.341423	-11.065000	0.000000
-32.341423	-11.065000	0.000000
-31.341423	-11.065000	0.000000
-30.341423	-11.065000	0.000000
-29.341423	-11.065000	0.000000
-28.341423	-11.065000	0.000000
-27.341423	-11.065000	0.000000
-26.341423	-11.065000	0.000000
-25.341423	-11.065000	1.480444
-24.341423	-11.065000	251.648148
-23.341423	-11.065000	0.000000
-22.341423	-11.065000	7.627785
-21.341423	-11.065000	18.265163
-20.341423	-11.065000	0.000000
-19.341423	-11.065000	5.670112
-18.341423	-11.065000	0.000000
-17.341423	-11.065000	0.000000
-16.341423	-11.065000	0.000000
-15.341423	-11.065000	0.000000
-14.341423	-11.065000	22.045725
-13.341423	-11.065000	27.677670
-12.341423	-11.065000	0.000000
-11.341423	-11.065000	12.869603
-10.341423	-11.065000	0.000000
-9.341423	-11.065000	3.730679
-8.341423	-11.065000	0.000000
-7.341423	-11.065000	0.000000
-6.341423	-11.065000	0.000000
-5.341423	-11.065000	0.000000
-4.341423	-11.065000	0.000000
-3.341423	-11.065000	0.000000
-2.341423	-11.065000	0.000000
-1.341423	-11.065000	0.000000
-0.341423	-11.065000	0.000000
0.658577	-11.065000	0.000000
1.658577	-11.065000	0.000000
2.658577	-11.065000	0.000000
3.658577	-11.065000	0.000000
4.658577	-11.065000	0.000000
5.658577	-11.065000	80.347641
6.658577	-11.065000	0.000000
7.658577	-11.065000	0.000000
8.658577	-11.065000	13.787361
9.658577	-11.065000	33.638039
10.658577	-11.065000	35.270660
11.658577	-11.065000	35.320560
12.658577	-11.065000	32.948730
13.658577	-11.065000	10.175321
14.658577	-11.065000	0.000000
15.658577	-11.065000	7.167393
16.658577	-11.065000	16.674570
17.658577	-11.065000	2.174165
18.658577	-11.065000	2000.000000
19.658577	-11.065000	5.627288
20.658577	-11.065000	7.513677
21.658577	-11.065000	3.712515
22.658577	-11.065000	2.518161
23.658577	-11.065000	0.000000
24.658577	-11.065000	0.000000
-39.341423	-10.065000	0.000000
-38.341423	-10.065000	0.000000
-37.341423	-10.065000	0.000000
-36.341423	-10.065000	0.000000
-35.341423	-10.065000	0.000000
-34.341423	-10.065000	0.000000
-33.341423	-10.065000	0.000000
-32.341423	-10.065000	0.000000
-31.341423	-10.065000	0.000000
-30.341423	-10.065000	228.262619
-29.341423	-10.065000	0.000000
-28.341423	-10.065000	0.000000
-27.341423	-10.065000	0.000000
-26.341423	-10.065000	0.000000
-25.341423	-10.065000	0.000000
-24.341423	-10.065000	10.548518
-23.341423	-10.065000	13.177149
-22.341423	-10.065000	31.706978
-21.341423	-10.065000	18.706457
-20.341423	-10.065000	15.035992
-19.341423	-10.065000	21.983538
-18.341423	-10.065000	2000.000000
-17.341423	-10.065000	0.000000
-16.341423	-10.065000	0.000000
-15.341423	-10.065000	0.000000
-14.341423	-10.065000	0.000000
-13.341423	-10.065000	19.055454
-12.341423	-10.065000	1189.480469
-11.341423	-10.065000	13.692927
-10.341423	-10.065000	16.757154
-9.341423	-10.065000	32.998837
-8.341423	-10.065000	6.309383
-7.341423	-10.065000	12.688740
-6.341423	-10.065000	0.000000
-5.341423	-10.065000	0.000000
-4.341423	-10.065000	0.000000
-3.341423	-10.065000	0.000000
-2.341423	-10.065000	0.000000
-1.341423	-10.065000	0.000000
-0.341423	-10.065000	0.000000
0.658577	-10.065000	0.000000
1.658577	-10.065000	0.000000
2.658577	-10.065000	39.531643
3.658577	-10.065000	3.615818
4.658577	-10.065000	0.000000
5.658577	-10.065000	0.000000
6.658577	-10.065000	0.000000
7.658577	-10.065000	0.000000
8.658577	-10.065000	33.616932
9.658577	-10.065000	35.672771
10.658577	-10.065000	34.913940
11.658577	-10.065000	36.230625
12.658577	-10.065000	31.373215
13.658577	-10.065000	3.780650
14.658577	-10.065000	12.256464
15.658577	-10.065000	6.642180
16.658577	-10.065000	8.339158
17.658577	-10.065000	4.743272
18.658577	-10.065000	4.464897
19.658577	-10.065000	0.000000
20.658577	-10.065000	0.000000
21.658577	-10.065000	3.081162
22.658577	-10.065000	5.982656
23.658577	-10.065000	0.000000
24.658577	-10.065000	22.758804
-39.341423	-9.065000	0.000000
-38.341423	-9.065000	0.000000
-37.341423	-9.065000	0.000000
-36.341423	-9.065000	0.000000
-35.341423	-9.065000	0.000000
-34.341423	-9.065000	0.000000
-33.341423	-9.065000	0.000000
-32.341423	-9.065000	0.000000
-31.341423	-9.065000	0.000000
-30.341423	-9.065000	0.000000
-29.341423	-9.065000	0.000000
-28.341423	-9.065000	0.000000
-27.341423	-9.065000	0.000000
-26.341423	-9.065000	0.000000
-25.341423	-9.065000	67.028923
-24.341423	-9.065000	29.497309
-23.341423	-9.065000	32.641792
-22.341423	-9.065000	33.364250
-21.341423	-9.065000	33.453880
-20.341423	-9.065000	31.291235
-19.341423	-9.065000	15.317608
-18.341423	-9.065000	12.959579
-17.341423	-9.065000	15.392073
-16.341423	-9.065000	0.000000
-15.341423	-9.065000	0.000000
-14.341423	-9.065000	0.000000
-13.341423	-9.065000	0.000000
-12.341423	-9.065000	0.000000
-11.341423	-9.065000	0.000000
-10.341423	-9.065000	0.000000
-9.341423	-9.065000	17.974197
-8.341423	-9.065000	0.000000
-7.341423	-9.065000	4.748734
-6.341423	-9.065000	0.518548
-5.341423	-9.065000	0.000000
-4.341423	-9.065000	0.000000
-3.341423	-9.065000	0.000000
-2.341423	-9.065000	2.334089
-1.341423	-9.065000	0.000000
-0.341423	-9.065000	0.000000
0.658577	-9.065000	57.680126
1.658577	-9.065000	22.307739
2.658577	-9.065000	9.633465
3.658577	-9.065000	13.142094
4.658577	-9.065000	0.000000
5.658577	-9.065000	0.000000
6.658577	-9.065000	0.000000
7.658577	-9.065000	0.000000
8.658577	-9.065000	33.819595
9.658577	-9.065000	38.337116
10.658577	-9.065000	38.983757
11.658577	-9.065000	37.379581
12.658577	-9.065000	15.822587
13.658577	-9.065000	9.187041
14.658577	-9.065000	9.454193
15.658577	-9.065000	23.641504
16.658577	-9.065000	6.824028
17.658577	-9.065000	0.000000
18.658577	-9.065000	7.611619
19.658577	-9.065000	0.000000
20.658577	-9.065000	3.990817
21.658577	-9.065000	10.376432
22.658577	-9.065000	1.884012
23.658577	-9.065000	50.085716
24.658577	-9.065000	30.048788
-39.341423	-8.065000	0.000000
-38.341423	-8.065000	0.000000
-37.341423	-8.065000	0.000000
-36.341423	-8.065000	0.000000
-35.341423	-8.065000	0.000000
-34.341423	-8.065000	0.000000
-33.341423	-8.065000	0.000000
-32.341423	-8.065000	0.000000
-31.341423	-8.065000	0.000000
-30.341423	-8.065000	0.000000
-29.341423	-8.065000	0.000000
-28.341423	-8.065000	0.000000
-27.341423	-8.065000	0.000000
-26.341423	-8.065000	0.000000
-25.341423	-8.065000	0.000000
-24.341423	-8.065000	6.669180
-23.341423	-8.065000	32.566078
-22.341423	-8.065000	33.799774
-21.341423	-8.065000	14.097894
-20.341423	-8.065000	3.548739
-19.341423	-8.065000	17.851515
-18.341423	-8.065000	7.443484
-17.341423	-8.065000	0.000000
-16.341423	-8.065000	0.000000
-15.341423	-8.065000	0.000000
-14.341423	-8.065000	0.000000
-13.341423	-8.065000	0.000000
-12.341423	-8.065000	0.000000
-11.341423	-8.065000	0.000000
-10.341423	-8.065000	0.000000
-9.341423	-8.065000	0.000000
-8.341423	-8.065000	16.023224
-7.341423	-8.065000	16.604616
-6.341423	-8.065000	12.166625
-5.341423	-8.065000	2.118120
-4.341423	-8.065000	3.027746
-3.341423	-8.065000	2.457601
-2.341423	-8.065000	6.946182
-1.341423	-8.065000	11.986805
-0.341423	-8.065000	18.750793
0.658577	-8.065000	17.992647
1.658577	-8.065000	30.960676
2.658577	-8.065000	29.949274
3.658577	-8.065000	20.050020
4.658577	-8.065000	0.000000
5.658577	-8.065000	0.000000
6.658577	-8.065000	0.000000
7.658577	-8.065000	14.781059
8.658577	-8.065000	32.721504
9.658577	-8.065000	35.902859
10.658577	-8.065000	37.258366
11.658577	-8.065000	37.185390
12.658577	-8.065000	28.618914
13.658577	-8.065000	0.000000
14.658577	-8.065000	0.000000
15.658577	-8.065000	17.995687
16.658577	-8.065000	0.000000
17.658577	-8.065000	0.000000
18.658577	-8.065000	3.327828
19.658577	-8.065000	64.586723
20.658577	-8.065000	0.000000
21.658577	-8.065000	5.672205
22.658577	-8.065000	4.621081
23.658577	-8.065000	45.734097
24.658577	-8.065000	32.388885
-39.341423	-7.065000	0.000000
-38.341423	-7.065000	0.000000
-37.341423	-7.065000	0.000000
-36.341423	-7.065000	0.000000
-35.341423	-7.065000	0.000000
-34.341423	-7.065000	0.000000
-33.341423	-7.065000	0.000000
-32.341423	-7.065000	0.000000
-31.341423	-7.065000	0.000000
-30.341423	-7.065000	0.000000
-29.341423	-7.065000	0.000000
-28.341423	-7.065000	0.000000
-27.341423	-7.065000	16.097422
-26.341423	-7.065000	0.000000
-25.341423	-7.065000	0.000000
-24.341423	-7.065000	0.000000
-23.341423	-7.065000	8.487825
-22.341423	-7.065000	27.030817
-21.341423	-7.065000	8.755415
-20.341423	-7.065000	164.807358
-19.341423	-7.065000	0.000000
-18.341423	-7.065000	23.781084
-17.341423	-7.065000	0.000000
-16.341423	-7.065000	0.000000
-15.341423	-7.065000	0.000000
-14.341423	-7.065000	0.000000
-13.341423	-7.065000	0.000000
-12.341423	-7.065000	0.000000
-11.341423	-7.065000	0.000000
-10.341423	-7.065000	0.000000
-9.341423	-7.065000	0.000000
-8.341423	-7.065000	0.000000
-7.341423	-7.065000	33.261856
-6.341423	-7.065000	29.650078
-5.341423	-7.065000	28.386452
-4.341423	-7.065000	27.459410
-3.341423	-7.065000	18.575329
-2.341423	-7.065000	16.342218
-1.341423	-7.065000	32.023422
-0.341423	-7.065000	34.629089
0.658577	-7.065000	31.550192
1.658577	-7.065000	34.866074
2.658577	-7.065000	14.349360
3.658577	-7.065000	13.924092
4.658577	-7.065000	0.000000
5.658577	-7.065000	0.000000
6.658577	-7.065000	23.474661
7.658577	-7.065000	28.946611
8.658577	-7.065000	35.481758
9.658577	-7.065000	36.026901
10.658577	-7.065000	25.209776
11.658577	-7.065000	30.958532
12.658577	-7.065000	33.722050
13.658577	-7.065000	14.715906
14.658577	-7.065000	0.000000
15.658577	-7.065000	0.000000
16.658577	-7.065000	0.785669
17.658577	-7.065000	4.763393
18.658577	-7.065000	9.031467
19.658577	-7.065000	5.928371
20.658577	-7.065000	0.000000
21.658577	-7.065000	0.000000
22.658577	-7.065000	12.028302
23.658577	-7.065000	36.061863
24.658577	-7.065000	25.528362
-39.341423	-6.065000	0.000000
-38.341423	-6.065000	0.000000
-37.341423	-6.065000	0.000000
-36.341423	-6.065000	0.000000
-35.341423	-6.065000	0.000000
-34.341423	-6.065000	0.000000
-33.341423	-6.065000	0.000000
-32.341423	-6.065000	0.000000
-31.341423	-6.065000	0.000000
-30.341423	-6.065000	0.000000
-29.341423	-6.065000	0.000000
-28.341423	-6.065000	0.000000
-27.341423	-6.065000	18.689535
-26.341423	-6.065000	64.977493
-25.341423	-6.065000	0.000000
-24.341423	-6.065000	0.000000
-23.341423	-6.065000	0.000000
-22.341423	-6.065000	0.000000
-21.341423	-6.065000	0.000000
-20.341423	-6.065000	24.192081
-19.341423	-6.065000	33.533150
-18.341423	-6.065000	36.786816
-17.341423	-6.065000	25.658361
-16.341423	-6.065000	0.000000
-15.341423	-6.065000	0.000000
-14.341423	-6.065000	0.000000
-13.341423	-6.065000	0.000000
-12.341423	-6.065000	0.000000
-11.341423	-6.065000	0.000000
-10.341423	-6.065000	0.000000
-9.341423	-6.065000	0.000000
-8.341423	-6.065000	0.000000
-7.341423	-6.065000	0.000000
-6.341423	-6.065000	20.703983
-5.341423	-6.065000	32.902073
-4.341423	-6.065000	35.063217
-3.341423	-6.065000	35.554943
-2.341423	-6.065000	27.714170
-1.341423	-6.065000	32.425968
-0.341423	-6.065000	35.579212
0.658577	-6.065000	35.452454
1.658577	-6.065000	35.552967
2.658577	-6.065000	23.840038
3.658577	-6.065000	0.000000
4.658577	-6.065000	0.000000
5.658577	-6.065000	0.000000
6.658577	-6.065000	8.971577
7.658577	-6.065000	14.911922
8.658577	-6.065000	36.181004
9.658577	-6.065000	29.997921
10.658577	-6.065000	0.000000
11.658577	-6.065000	0.000000
12.658577	-6.065000	16.280579
13.658577	-6.065000	0.000000
14.658577	-6.065000	0.000000
15.658577	-6.065000	0.000000
16.658577	-6.065000	0.000000
17.658577	-6.065000	6.860983
18.658577	-6.065000	797.177734
19.658577	-6.065000	0.000000
20.658577	-6.065000	4.021227
21.658577	-6.065000	0.000000
22.658577	-6.065000	0.000000
23.658577	-6.065000	0.000000
24.658577	-6.065000	2.728853
-39.341423	-5.065000	32.269203
-38.341423	-5.065000	9.887156
-37.341423	-5.065000	0.000000
-36.341423	-5.065000	0.000000
-35.341423	-5.065000	0.000000
-34.341423	-5.065000	0.000000
-33.341423	-5.065000	0.000000
-32.341423	-5.065000	0.000000
-31.341423	-5.065000	0.000000
-30.341423	-5.065000	0.000000
-29.341423	-5.065000	0.000000
-28.341423	-5.065000	0.000000
-27.341423	-5.065000	46.931488
-26.341423	-5.065000	0.000000
-25.341423	-5.065000	0.000000
-24.341423	-5.065000	0.000000
-23.341423	-5.065000	70.396896
-22.341423	-5.065000	0.000000
-21.341423	-5.065000	0.000000
-20.341423	-5.065000	33.968060
-19.341423	-5.065000	35.403763
-18.341423	-5.065000	37.201416
-17.341423	-5.065000	36.094456
-16.341423	-5.065000	9.934245
-15.341423	-5.065000	0.000000
-14.341423	-5.065000	0.000000
-13.341423	-5.065000	0.000000
-12.341423	-5.065000	0.000000
-11.341423	-5.065000	0.000000
-10.341423	-5.065000	0.000000
-9.341423	-5.065000	0.000000
-8.341423	-5.065000	0.000000
-7.341423	-5.065000	0.000000
-6.341423	-5.065000	0.000000
-5.341423	-5.065000	13.983132
-4.341423	-5.065000	36.829613
-3.341423	-5.065000	35.358322
-2.341423	-5.065000	34.396793
-1.341423	-5.065000	31.552849
-0.341423	-5.065000	30.083595
0.658577	-5.065000	24.696573
1.658577	-5.065000	33.522556
2.658577	-5.065000	34.610703
3.658577	-5.065000	31.608145
4.658577	-5.065000	18.263212
5.658577	-5.065000	52.564339
6.658577	-5.065000	10.467531
7.658577	-5.065000	12.675300
8.658577	-5.065000	35.825935
9.658577	-5.065000	22.022942
10.658577	-5.065000	0.000000
11.658577	-5.065000	0.000000
12.658577	-5.065000	0.000000
13.658577	-5.065000	0.000000
14.658577	-5.065000	0.000000
15.658577	-5.065000	0.000000
16.658577	-5.065000	0.000000
17.658577	-5.065000	17.726177
18.658577	-5.065000	5.522736
19.658577	-5.065000	0.000000
20.658577	-5.065000	0.000000
21.658577	-5.065000	3.020808
22.658577	-5.065000	20.999636
23.658577	-5.065000	0.000000
24.658577	-5.065000	0.000000
-39.341423	-4.065000	36.864788
-38.341423	-4.065000	27.588068
-37.341423	-4.065000	1998.191650
-36.341423	-4.065000	0.000000
-35.341423	-4.065000	51.368435
-34.341423	-4.065000	0.000000
-33.341423	-4.065000	0.000000
-32.341423	-4.065000	2000.000000
-31.341423	-4.065000	12.658117
-30.341423	-4.065000	93.632477
-29.341423	-4.065000	25.712139
-28.341423	-4.065000	15.732986
-27.341423	-4.065000	0.000000
-26.341423	-4.065000	0.000000
-25.341423	-4.065000	0.000000
-24.341423	-4.065000	0.000000
-23.341423	-4.065000	19.285849
-22.341423	-4.065000	2000.000000
-21.341423	-4.065000	0.000000
-20.341423	-4.065000	10.288267
-19.341423	-4.065000	24.049789
-18.341423	-4.065000	30.881437
-17.341423	-4.065000	32.584263
-16.341423	-4.065000	26.899576
-15.341423	-4.065000	0.000000
-14.341423	-4.065000	0.000000
-13.341423	-4.065000	0.000000
-12.341423	-4.065000	0.000000
-11.341423	-4.065000	0.000000
-10.341423	-4.065000	0.000000
-9.341423	-4.065000	0.000000
-8.341423	-4.065000	0.000000
-7.341423	-4.065000	0.000000
-6.341423	-4.065000	0.000000
-5.341423	-4.065000	0.000000
-4.341423	-4.065000	33.723263
-3.341423	-4.065000	34.134659
-2.341423	-4.065000	34.891846
-1.341423	-4.065000	31.999617
-0.341423	-4.065000	17.918266
0.658577	-4.065000	15.465255
1.658577	-4.065000	25.516987
2.658577	-4.065000	35.588039
3.658577	-4.065000	34.295479
4.658577	-4.065000	32.822891
5.658577	-4.065000	18.238132
6.658577	-4.065000	54.046059
7.658577	-4.065000	10.547623
8.658577	-4.065000	16.528500
9.658577	-4.065000	72.282364
10.658577	-4.065000	0.000000
11.658577	-4.065000	13.704768
12.658577	-4.065000	0.000000
13.658577	-4.065000	0.000000
14.658577	-4.065000	0.000000
15.658577	-4.065000	25.291834
16.658577	-4.065000	17.182323
17.658577	-4.065000	0.000000
18.658577	-4.065000	0.000000
19.658577	-4.065000	9.250743
20.658577	-4.065000	8.921404
21.658577	-4.065000	6.170706
22.658577	-4.065000	26.259224
23.658577	-4.065000	0.000000
24.658577	-4.065000	0.000000
-39.341423	-3.065000	36.899158
-38.341423	-3.065000	34.083351
-37.341423	-3.065000	8.902094
-36.341423	-3.065000	12.240937
-35.341423	-3.065000	0.000000
-34.341423	-3.065000	0.000000
-33.341423	-3.065000	17.752075
-32.341423	-3.065000	33.399914
-31.341423	-3.065000	30.308628
-30.341423	-3.065000	0.000000
-29.341423	-3.065000	31.595266
-28.341423	-3.065000	32.414940
-27.341423	-3.065000	21.113733
-26.341423	-3.065000	0.000000
-25.341423	-3.065000	0.000000
-24.341423	-3.065000	0.000000
-23.341423	-3.065000	3.352411
-22.341423	-3.065000	847.079895
-21.341423	-3.065000	0.000000
-20.341423	-3.065000	18.437643
-19.341423	-3.065000	12.908189
-18.341423	-3.065000	15.817356
-17.341423	-3.065000	15.861309
-16.341423	-3.065000	31.622051
-15.341423	-3.065000	32.203728
-14.341423	-3.065000	0.000000
-13.341423	-3.065000	0.000000
-12.341423	-3.065000	0.000000
-11.341423	-3.065000	0.000000
-10.341423	-3.065000	0.000000
-9.341423	-3.065000	0.000000
-8.341423	-3.065000	0.000000
-7.341423	-3.065000	0.000000
-6.341423	-3.065000	0.000000
-5.341423	-3.065000	0.000000
-4.341423	-3.065000	7.645915
-3.341423	-3.065000	26.087557
-2.341423	-3.065000	79.341141
-1.341423	-3.065000	0.000000
-0.341423	-3.065000	0.000000
0.658577	-3.065000	0.000000
1.658577	-3.065000	23.562754
2.658577	-3.065000	33.153439
3.658577	-3.065000	16.719587
4.658577	-3.065000	30.530870
5.658577	-3.065000	9.428015
6.658577	-3.065000	0.000000
7.658577	-3.065000	0.000000
8.658577	-3.065000	0.000000
9.658577	-3.065000	0.000000
10.658577	-3.065000	17.219507
11.658577	-3.065000	58.741909
12.658577	-3.065000	0.000000
13.658577	-3.065000	0.000000
14.658577	-3.065000	648.098450
15.658577	-3.065000	276.947296
16.658577	-3.065000	0.000000
17.658577	-3.065000	0.000000
18.658577	-3.065000	155.910614
19.658577	-3.065000	109.248886
20.658577	-3.065000	0.000000
21.658577	-3.065000	13.710794
22.658577	-3.065000	31.071848
23.658577	-3.065000	4.908474
24.658577	-3.065000	0.000000
-39.341423	-2.065000	34.375031
-38.341423	-2.065000	31.217974
-37.341423	-2.065000	0.000000
-36.341423	-2.065000	27.416031
-35.341423	-2.065000	26.027739
-34.341423	-2.065000	28.490339
-33.341423	-2.065000	31.162674
-32.341423	-2.065000	31.439312
-31.341423	-2.065000	17.020107
-30.341423	-2.065000	8.018224
-29.341423	-2.065000	33.571404
-28.341423	-2.065000	33.994232
-27.341423	-2.065000	30.471624
-26.341423	-2.065000	0.000000
-25.341423	-2.065000	0.000000
-24.341423	-2.065000	0.000000
-23.341423	-2.065000	0.000000
-22.341423	-2.065000	0.000000
-21.341423	-2.065000	9.729033
-20.341423	-2.065000	24.051693
-19.341423	-2.065000	18.076658
-18.341423	-2.065000	33.179138
-17.341423	-2.065000	27.662821
-16.341423	-2.065000	12.621688
-15.341423	-2.065000	0.000000
-14.341423	-2.065000	0.000000
-13.341423	-2.065000	0.000000
-12.341423	-2.065000	0.000000
-11.341423	-2.065000	0.000000
-10.341423	-2.065000	0.000000
-9.341423	-2.065000	0.000000
-8.341423	-2.065000	0.000000
-7.341423	-2.065000	0.000000
-6.341423	-2.065000	0.000000
-5.341423	-2.065000	0.000000
-4.341423	-2.065000	0.000000
-3.341423	-2.065000	0.000000
-2.341423	-2.065000	0.000000
-1.341423	-2.065000	0.000000
-0.341423	-2.065000	0.000000
0.658577	-2.065000	0.000000
1.658577	-2.065000	12.413859
2.658577	-2.065000	33.525398
3.658577	-2.065000	29.832001
4.658577	-2.065000	29.528961
5.658577	-2.065000	10.874428
6.658577	-2.065000	0.000000
7.658577	-2.065000	0.000000
8.658577	-2.065000	703.225403
9.658577	-2.065000	15.496438
10.658577	-2.065000	9.633968
11.658577	-2.065000	0.000000
12.658577	-2.065000	0.000000
13.658577	-2.065000	0.000000
14.658577	-2.065000	0.000000
15.658577	-2.065000	0.000000
16.658577	-2.065000	0.000000
17.658577	-2.065000	0.000000
18.658577	-2.065000	19.543621
19.658577	-2.065000	13.403538
20.658577	-2.065000	0.498313
21.658577	-2.065000	33.412704
22.658577	-2.065000	30.601122
23.658577	-2.065000	6.820030
24.658577	-2.065000	60.646774
-39.341423	-1.065000	26.426971
-38.341423	-1.065000	21.094608
-37.341423	-1.065000	9.508182
-36.341423	-1.065000	10.327237
-35.341423	-1.065000	7.158626
-34.341423	-1.065000	34.438679
-33.341423	-1.065000	1.421310
-32.341423	-1.065000	0.000000
-31.341423	-1.065000	6.949998
-30.341423	-1.065000	11.361481
-29.341423	-1.065000	32.166546
-28.341423	-1.065000	36.900726
-27.341423	-1.065000	35.400398
-26.341423	-1.065000	17.509775
-25.341423	-1.065000	0.000000
-24.341423	-1.065000	0.000000
-23.341423	-1.065000	15.111136
-22.341423	-1.065000	14.370738
-21.341423	-1.065000	24.679131
-20.341423	-1.065000	30.449883
-19.341423	-1.065000	30.333309
-18.341423	-1.065000	29.276213
-17.341423	-1.065000	0.000000
-16.341423	-1.065000	2000.000000
-15.341423	-1.065000	0.000000
-14.341423	-1.065000	0.000000
-13.341423	-1.065000	0.000000
-12.341423	-1.065000	0.000000
-11.341423	-1.065000	0.000000
-10.341423	-1.065000	0.000000
-9.341423	-1.065000	0.000000
-8.341423	-1.065000	0.000000
-7.341423	-1.065000	0.000000
-6.341423	-1.065000	0.000000
-5.341423	-1.065000	0.000000
-4.341423	-1.065000	0.000000
-3.341423	-1.065000	15.434343
-2.341423	-1.065000	0.000000
-1.341423	-1.065000	0.000000
-0.341423	-1.065000	0.000000
0.658577	-1.065000	0.000000
1.658577	-1.065000	0.000000
2.658577	-1.065000	11.253802
3.658577	-1.065000	19.559761
4.658577	-1.065000	45.809715
5.658577	-1.065000	0.000000
6.658577	-1.065000	24.249569
7.658577	-1.065000	12.137381
8.658577	-1.065000	30.970167
9.658577	-1.065000	13.596803
10.658577	-1.065000	9.681172
11.658577	-1.065000	26.852997
12.658577	-1.065000	0.000000
13.658577	-1.065000	0.000000
14.658577	-1.065000	0.000000
15.658577	-1.065000	0.000000
16.658577	-1.065000	0.000000
17.658577	-1.065000	0.000000
18.658577	-1.065000	26.355730
19.658577	-1.065000	15.612799
20.658577	-1.065000	17.524210
21.658577	-1.065000	23.293695
22.658577	-1.065000	15.437783
23.658577	-1.065000	0.000000
24.658577	-1.065000	0.000000
-39.341423	-0.065000	0.401117
-38.341423	-0.065000	3.031906
-37.341423	-0.065000	16.148861
-36.341423	-0.065000	0.000000
-35.341423	-0.065000	0.000000
-34.341423	-0.065000	0.000000
-33.341423	-0.065000	0.000000
-32.341423	-0.065000	7.384125
-31.341423	-0.065000	45.717270
-30.341423	-0.065000	1.724338
-29.341423	-0.065000	22.738447
-28.341423	-0.065000	37.504395
-27.341423	-0.065000	35.707706
-26.341423	-0.065000	30.807947
-25.341423	-0.065000	0.000000
-24.341423	-0.065000	0.000000
-23.341423	-0.065000	0.000000
-22.341423	-0.065000	30.602480
-21.341423	-0.065000	32.035538
-20.341423	-0.065000	27.978266
-19.341423	-0.065000	17.697851
-18.341423	-0.065000	10.627807
-17.341423	-0.065000	0.000000
-16.341423	-0.065000	6.105926
-15.341423	-0.065000	28.244734
-14.341423	-0.065000	0.000000
-13.341423	-0.065000	0.000000
-12.341423	-0.065000	0.000000
-11.341423	-0.065000	0.000000
-10.341423	-0.065000	0.000000
-9.341423	-0.065000	0.000000
-8.341423	-0.065000	0.000000
-7.341423	-0.065000	0.000000
-6.341423	-0.065000	0.000000
-5.341423	-0.065000	0.000000
-4.341423	-0.065000	13.864537
-3.341423	-0.065000	12.495108
-2.341423	-0.065000	0.000000
-1.341423	-0.065000	0.000000
-0.341423	-0.065000	0.000000
0.658577	-0.065000	0.000000
1.658577	-0.065000	9.443768
2.658577	-0.065000	18.154785
3.658577	-0.065000	0.000000
4.658577	-0.065000	0.000000
5.658577	-0.065000	0.000000
6.658577	-0.065000	20.759293
7.658577	-0.065000	22.217470
8.658577	-0.065000	8.199831
9.658577	-0.065000	0.000000
10.658577	-0.065000	4.966355
11.658577	-0.065000	0.000000
12.658577	-0.065000	0.000000
13.658577	-0.065000	0.000000
14.658577	-0.065000	0.000000
15.658577	-0.065000	0.000000
16.658577	-0.065000	0.000000
17.658577	-0.065000	0.000000
18.658577	-0.065000	33.034660
19.658577	-0.065000	28.949091
20.658577	-0.065000	0.000000
21.658577	-0.065000	0.000000
22.658577	-0.065000	0.000000
23.658577	-0.065000	0.000000
24.658577	-0.065000	0.000000
-39.341423	0.935000	0.000000
-38.341423	0.935000	0.654617
-37.341423	0.935000	0.000000
-36.341423	0.935000	0.000000
-35.341423	0.935000	0.000000
-34.341423	0.935000	0.000000
-33.341423	0.935000	0.000000
-32.341423	0.935000	0.000000
-31.341423	0.935000	0.000000
-30.341423	0.935000	21.128630
-29.341423	0.935000	33.017952
-28.341423	0.935000	37.575230
-27.341423	0.935000	34.570091
-26.341423	0.935000	25.940655
-25.341423	0.935000	0.000000
-24.341423	0.935000	0.000000
-23.341423	0.935000	0.000000
-22.341423	0.935000	0.000000
-21.341423	0.935000	0.461544
-20.341423	0.935000	19.796740
-19.341423	0.935000	5.676703
-18.341423	0.935000	11.106339
-17.341423	0.935000	0.000000
-16.341423	0.935000	18.376461
-15.341423	0.935000	25.825626
-14.341423	0.935000	0.000000
-13.341423	0.935000	0.000000
-12.341423	0.935000	0.000000
-11.341423	0.935000	0.000000
-10.341423	0.935000	0.000000
-9.341423	0.935000	0.000000
-8.341423	0.935000	0.000000
-7.341423	0.935000	0.000000
-6.341423	0.935000	0.000000
-5.341423	0.935000	0.000000
-4.341423	0.935000	0.000000
-3.341423	0.935000	12.482983
-2.341423	0.935000	0.000000
-1.341423	0.935000	0.000000
-0.341423	0.935000	0.000000
0.658577	0.935000	0.000000
1.658577	0.935000	20.535360
2.658577	0.935000	12.358919
3.658577	0.935000	4.201066
4.658577	0.935000	4.756679
5.658577	0.935000	0.000000
6.658577	0.935000	0.000000
7.658577	0.935000	0.000000
8.658577	0.935000	0.000000
9.658577	0.935000	2000.000000
10.658577	0.935000	0.000000
11.658577	0.935000	0.000000
12.658577	0.935000	0.000000
13.658577	0.935000	0.000000
14.658577	0.935000	0.000000
15.658577	0.935000	0.000000
16.658577	0.935000	0.000000
17.658577	0.935000	0.000000
18.658577	0.935000	26.190289
19.658577	0.935000	12.216100
20.658577	0.935000	0.000000
21.658577	0.935000	0.000000
22.658577	0.935000	0.000000
23.658577	0.935000	0.000000
24.658577	0.935000	32.205914
-39.341423	1.935000	0.000000
-38.341423	1.935000	2000.000000
-37.341423	1.935000	0.000000
-36.341423	1.935000	0.000000
-35.341423	1.935000	0.681003
-34.341423	1.935000	0.000000
-33.341423	1.935000	9.532789
-32.341423	1.935000	0.000000
-31.341423	1.935000	0.000000
-30.341423	1.935000	8.055580
-29.341423	1.935000	25.216787
-28.341423	1.935000	33.387089
-27.341423	1.935000	31.658524
-26.341423	1.935000	0.000000
-25.341423	1.935000	0.000000
-24.341423	1.935000	0.000000
-23.341423	1.935000	0.000000
-22.341423	1.935000	0.000000
-21.341423	1.935000	0.000000
-20.341423	1.935000	0.000000
-19.341423	1.935000	26.810141
-18.341423	1.935000	32.311928
-17.341423	1.935000	33.313843
-16.341423	1.935000	35.990341
-15.341423	1.935000	30.334589
-14.341423	1.935000	0.000000
-13.341423	1.935000	0.000000
-12.341423	1.935000	0.000000
-11.341423	1.935000	0.000000
-10.341423	1.935000	0.000000
-9.341423	1.935000	0.000000
-8.341423	1.935000	0.000000
-7.341423	1.935000	0.000000
-6.341423	1.935000	0.000000
-5.341423	1.935000	0.000000
-4.341423	1.935000	0.000000
-3.341423	1.935000	0.000000
-2.341423	1.935000	0.000000
-1.341423	1.935000	0.000000
-0.341423	1.935000	0.000000
0.658577	1.935000	0.000000
1.658577	1.935000	22.164234
2.658577	1.935000	11.773737
3.658577	1.935000	0.000000
4.658577	1.935000	0.000000
5.658577	1.935000	0.000000
6.658577	1.935000	0.000000
7.658577	1.935000	26.202509
8.658577	1.935000	18.331150
9.658577	1.935000	0.000000
10.658577	1.935000	0.000000
11.658577	1.935000	0.000000
12.658577	1.935000	0.000000
13.658577	1.935000	0.000000
14.658577	1.935000	0.000000
15.658577	1.935000	0.000000
16.658577	1.935000	0.000000
17.658577	1.935000	0.000000
18.658577	1.935000	24.392498
19.658577	1.935000	20.448017
20.658577	1.935000	0.000000
21.658577	1.935000	0.000000
22.658577	1.935000	0.000000
23.658577	1.935000	0.000000
24.658577	1.935000	0.000000
-39.341423	2.935000	0.000000
-38.341423	2.935000	0.000000
-37.341423	2.935000	0.000000
-36.341423	2.935000	19.737637
-35.341423	2.935000	13.610721
-34.341423	2.935000	19.668360
-33.341423	2.935000	0.000000
-32.341423	2.935000	9.012306
-31.341423	2.935000	4.501783
-30.341423	2.935000	0.000000
-29.341423	2.935000	0.000000
-28.341423	2.935000	21.455030
-27.341423	2.935000	5.507660
-26.341423	2.935000	0.000000
-25.341423	2.935000	0.000000
-24.341423	2.935000	0.000000
-23.341423	2.935000	0.000000
-22.341423	2.935000	0.000000
-21.341423	2.935000	0.000000
-20.341423	2.935000	47.034313
-19.341423	2.935000	28.255356
-18.341423	2.935000	35.369831
-17.341423	2.935000	34.746124
-16.341423	2.935000	35.775612
-15.341423	2.935000	37.474613
-14.341423	2.935000	29.748167
-13.341423	2.935000	19.817162
-12.341423	2.935000	0.000000
-11.341423	2.935000	0.000000
-10.341423	2.935000	0.000000
-9.341423	2.935000	0.000000
-8.341423	2.935000	0.000000
-7.341423	2.935000	0.000000
-6.341423	2.935000	0.000000
-5.341423	2.935000	0.000000
-4.341423	2.935000	0.000000
-3.341423	2.935000	0.000000
-2.341423	2.935000	0.000000
-1.341423	2.935000	0.000000
-0.341423	2.935000	0.000000
0.658577	2.935000	0.000000
1.658577	2.935000	0.000000
2.658577	2.935000	0.000000
3.658577	2.935000	0.000000
4.658577	2.935000	0.000000
5.658577	2.935000	5.285803
6.658577	2.935000	33.917713
7.658577	2.935000	32.573616
8.658577	2.935000	0.000000
9.658577	2.935000	0.000000
10.658577	2.935000	0.000000
11.658577	2.935000	0.000000
12.658577	2.935000	0.000000
13.658577	2.935000	0.000000
14.658577	2.935000	0.000000
15.658577	2.935000	0.000000
16.658577	2.935000	0.000000
17.658577	2.935000	0.000000
18.658577	2.935000	21.468328
19.658577	2.935000	31.040524
20.658577	2.935000	25.477861
21.658577	2.935000	12.801417
22.658577	2.935000	0.000000
23.658577	2.935000	0.000000
24.658577	2.935000	0.000000
-39.341423	3.935000	0.000000
-38.341423	3.935000	6.313413
-37.341423	3.935000	76.138161
-36.341423	3.935000	0.000000
-35.341423	3.935000	0.000000
-34.341423	3.935000	0.000000
-33.341423	3.935000	3.859836
-32.341423	3.935000	0.000000
-31.341423	3.935000	0.000000
-30.341423	3.935000	0.000000
-29.341423	3.935000	341.390808
-28.341423	3.935000	0.000000
-27.341423	3.935000	0.000000
-26.341423	3.935000	0.000000
-25.341423	3.935000	0.000000
-24.341423	3.935000	0.000000
-23.341423	3.935000	0.000000
-22.341423	3.935000	0.000000
-21.341423	3.935000	0.000000
-20.341423	3.935000	0.000000
-19.341423	3.935000	14.840418
-18.341423	3.935000	0.000000
-17.341423	3.935000	645.769165
-16.341423	3.935000	30.569487
-15.341423	3.935000	27.490593
-14.341423	3.935000	33.975792
-13.341423	3.935000	32.723114
-12.341423	3.935000	5.050931
-11.341423	3.935000	0.000000
-10.341423	3.935000	0.000000
-9.341423	3.935000	0.000000
-8.341423	3.935000	0.000000
-7.341423	3.935000	0.000000
-6.341423	3.935000	15.329708
-5.341423	3.935000	0.000000
-4.341423	3.935000	26.790976
-3.341423	3.935000	55.062012
-2.341423	3.935000	0.000000
-1.341423	3.935000	0.000000
-0.341423	3.935000	0.000000
0.658577	3.935000	0.000000
1.658577	3.935000	53.564522
2.658577	3.935000	42.051941
3.658577	3.935000	0.000000
4.658577	3.935000	0.000000
5.658577	3.935000	0.000000
6.658577	3.935000	158.448166
7.658577	3.935000	0.000000
8.658577	3.935000	0.000000
9.658577	3.935000	0.000000
10.658577	3.935000	1742.190430
11.658577	3.935000	0.000000
12.658577	3.935000	0.000000
13.658577	3.935000	0.000000
14.658577	3.935000	0.000000
15.658577	3.935000	0.000000
16.658577	3.935000	0.000000
17.658577	3.935000	0.000000
18.658577	3.935000	0.000000
19.658577	3.935000	0.000000
20.658577	3.935000	0.000000
21.658577	3.935000	0.000000
22.658577	3.935000	0.000000
23.658577	3.935000	0.000000
24.658577	3.935000	0.000000
-39.341423	4.935000	0.000000
-38.341423	4.935000	0.000000
-37.341423	4.935000	1099.185913
-36.341423	4.935000	0.000000
-35.341423	4.935000	0.000000
-34.341423	4.935000	0.000000
-33.341423	4.935000	0.000000
-32.341423	4.935000	0.000000
-31.341423	4.935000	0.000000
-30.341423	4.935000	6.525387
-29.341423	4.935000	15.861599
-28.341423	4.935000	13.383777
-27.341423	4.935000	17.462811
-26.341423	4.935000	3.449048
-25.341423	4.935000	0.000000
-24.341423	4.935000	0.000000
-23.341423	4.935000	0.000000
-22.341423	4.935000	0.000000
-21.341423	4.935000	4.561248
-20.341423	4.935000	11.520885
-19.341423	4.935000	0.000000
-18.341423	4.935000	0.000000
-17.341423	4.935000	0.000000
-16.341423	4.935000	0.000000
-15.341423	4.935000	9.076786
-14.341423	4.935000	23.567533
-13.341423	4.935000	35.060707
-12.341423	4.935000	25.228447
-11.341423	4.935000	0.000000
-10.341423	4.935000	0.000000
-9.341423	4.935000	0.000000
-8.341423	4.935000	0.000000
-7.341423	4.935000	0.000000
-6.341423	4.935000	28.021814
-5.341423	4.935000	33.019333
-4.341423	4.935000	34.084301
-3.341423	4.935000	6.396655
-2.341423	4.935000	0.000000
-1.341423	4.935000	0.000000
-0.341423	4.935000	0.000000
0.658577	4.935000	0.000000
1.658577	4.935000	1739.289307
2.658577	4.935000	10.997150
3.658577	4.935000	0.000000
4.658577	4.935000	15.768991
5.658577	4.935000	79.184174
6.658577	4.935000	0.000000
7.658577	4.935000	0.000000
8.658577	4.935000	0.000000
9.658577	4.935000	0.000000
10.658577	4.935000	0.000000
11.658577	4.935000	0.000000
12.658577	4.935000	0.000000
13.658577	4.935000	0.000000
14.658577	4.935000	0.000000
15.658577	4.935000	0.000000
16.658577	4.935000	0.000000
17.658577	4.935000	0.000000
18.658577	4.935000	0.000000
19.658577	4.935000	0.000000
20.658577	4.935000	0.000000
21.658577	4.935000	0.000000
22.658577	4.935000	0.000000
23.658577	4.935000	0.000000
24.658577	4.935000	0.000000
-39.341423	5.935000	0.000000
-38.341423	5.935000	0.000000
-37.341423	5.935000	0.000000
-36.341423	5.935000	0.000000
-35.341423	5.935000	0.000000
-34.341423	5.935000	0.000000
-33.341423	5.935000	0.000000
-32.341423	5.935000	0.000000
-31.341423	5.935000	25.090727
-30.341423	5.935000	31.909725
-29.341423	5.935000	32.125671
-28.341423	5.935000	33.844555
-27.341423	5.935000	33.535728
-26.341423	5.935000	31.664116
-25.341423	5.935000	0.000000
-24.341423	5.935000	63.456211
-23.341423	5.935000	0.000000
-22.341423	5.935000	12.303670
-21.341423	5.935000	26.443537
-20.341423	5.935000	15.494539
-19.341423	5.935000	0.000000
-18.341423	5.935000	0.000000
-17.341423	5.935000	0.000000
-16.341423	5.935000	0.000000
-15.341423	5.935000	0.000000
-14.341423	5.935000	0.000000
-13.341423	5.935000	29.055738
-12.341423	5.935000	27.947449
-11.341423	5.935000	129.684219
-10.341423	5.935000	0.000000
-9.341423	5.935000	0.000000
-8.341423	5.935000	0.000000
-7.341423	5.935000	0.000000
-6.341423	5.935000	0.000000
-5.341423	5.935000	30.451080
-4.341423	5.935000	32.903244
-3.341423	5.935000	0.000000
-2.341423	5.935000	0.000000
-1.341423	5.935000	0.000000
-0.341423	5.935000	0.000000
0.658577	5.935000	0.000000
1.658577	5.935000	0.000000
2.658577	5.935000	0.000000
3.658577	5.935000	16.543478
4.658577	5.935000	25.940025
5.658577	5.935000	16.208374
6.658577	5.935000	0.000000
7.658577	5.935000	0.000000
8.658577	5.935000	0.000000
9.658577	5.935000	0.000000
10.658577	5.935000	0.000000
11.658577	5.935000	0.000000
12.658577	5.935000	0.000000
13.658577	5.935000	0.000000
14.658577	5.935000	0.000000
15.658577	5.935000	0.000000
16.658577	5.935000	31.380289
17.658577	5.935000	19.280462
18.658577	5.935000	0.000000
19.658577	5.935000	0.000000
20.658577	5.935000	0.000000
21.658577	5.935000	0.000000
22.658577	5.935000	0.000000
23.658577	5.935000	0.000000
24.658577	5.935000	0.000000
-39.341423	6.935000	0.000000
-38.341423	6.935000	0.000000
-37.341423	6.935000	0.000000
-36.341423	6.935000	0.000000
-35.341423	6.935000	0.000000
-34.341423	6.935000	0.000000
-33.341423	6.935000	0.000000
-32.341423	6.935000	0.000000
-31.341423	6.935000	16.970373
-30.341423	6.935000	33.352585
-29.341423	6.935000	96.650368
-28.341423	6.935000	30.674023
-27.341423	6.935000	26.006605
-26.341423	6.935000	9.564624
-25.341423	6.935000	18.254433
-24.341423	6.935000	0.000000
-23.341423	6.935000	38.919170
-22.341423	6.935000	0.000000
-21.341423	6.935000	4.001439
-20.341423	6.935000	0.000000
-19.341423	6.935000	0.000000
-18.341423	6.935000	0.000000
-17.341423	6.935000	0.000000
-16.341423	6.935000	0.000000
-15.341423	6.935000	0.000000
-14.341423	6.935000	0.000000
-13.341423	6.935000	0.000000
-12.341423	6.935000	21.576130
-11.341423	6.935000	13.512056
-10.341423	6.935000	0.000000
-9.341423	6.935000	55.791813
-8.341423	6.935000	0.000000
-7.341423	6.935000	1039.715088
-6.341423	6.935000	0.000000
-5.341423	6.935000	20.010185
-4.341423	6.935000	26.755289
-3.341423	6.935000	0.000000
-2.341423	6.935000	603.432983
-1.341423	6.935000	0.000000
-0.341423	6.935000	0.000000
0.658577	6.935000	0.000000
1.658577	6.935000	0.000000
2.658577	6.935000	23.202429
3.658577	6.935000	31.771530
4.658577	6.935000	29.645607
5.658577	6.935000	16.951746
6.658577	6.935000	0.000000
7.658577	6.935000	0.000000
8.658577	6.935000	0.000000
9.658577	6.935000	0.000000
10.658577	6.935000	0.000000
11.658577	6.935000	0.000000
12.658577	6.935000	0.000000
13.658577	6.935000	0.000000
14.658577	6.935000	29.338331
15.658577	6.935000	11.125629
16.658577	6.935000	20.172773
17.658577	6.935000	19.847263
18.658577	6.935000	0.000000
19.658577	6.935000	0.000000
20.658577	6.935000	0.000000
21.658577	6.935000	0.000000
22.658577	6.935000	14.021949
23.658577	6.935000	0.000000
24.658577	6.935000	0.000000
-39.341423	7.935000	0.000000
-38.341423	7.935000	0.000000
-37.341423	7.935000	0.000000
-36.341423	7.935000	0.000000
-35.341423	7.935000	0.000000
-34.341423	7.935000	0.000000
-33.341423	7.935000	0.000000
-32.341423	7.935000	0.000000
-31.341423	7.935000	0.000000
-30.341423	7.935000	0.000000
-29.341423	7.935000	0.000000
-28.341423	7.935000	18.538187
-27.341423	7.935000	0.000000
-26.341423	7.935000	0.000000
-25.341423	7.935000	107.645622
-24.341423	7.935000	48.821743
-23.341423	7.935000	14.827207
-22.341423	7.935000	12.183902
-21.341423	7.935000	0.000000
-20.341423	7.935000	0.000000
-19.341423	7.935000	0.000000
-18.341423	7.935000	646.088257
-17.341423	7.935000	65.936203
-16.341423	7.935000	0.000000
-15.341423	7.935000	0.000000
-14.341423	7.935000	0.000000
-13.341423	7.935000	0.000000
-12.341423	7.935000	0.000000
-11.341423	7.935000	9.139563
-10.341423	7.935000	0.000000
-9.341423	7.935000	0.000000
-8.341423	7.935000	0.000000
-7.341423	7.935000	8.656270
-6.341423	7.935000	0.000000
-5.341423	7.935000	0.000000
-4.341423	7.935000	16.272249
-3.341423	7.935000	11.151155
-2.341423	7.935000	0.000000
-1.341423	7.935000	0.000000
-0.341423	7.935000	0.000000
0.658577	7.935000	0.000000
1.658577	7.935000	13.011230
2.658577	7.935000	0.000000
3.658577	7.935000	8.677862
4.658577	7.935000	8.897399
5.658577	7.935000	12.410998
6.658577	7.935000	3.914428
7.658577	7.935000	5.632926
8.658577	7.935000	290.077179
9.658577	7.935000	0.000000
10.658577	7.935000	0.000000
11.658577	7.935000	0.000000
12.658577	7.935000	0.000000
13.658577	7.935000	8.923313
14.658577	7.935000	94.221375
15.658577	7.935000	11.845974
16.658577	7.935000	8.182085
17.658577	7.935000	65.202293
18.658577	7.935000	16.808008
19.658577	7.935000	38.935928
20.658577	7.935000	23.935942
21.658577	7.935000	0.000000
22.658577	7.935000	0.000000
23.658577	7.935000	0.000000
24.658577	7.935000	0.000000
-39.341423	8.935000	0.000000
-38.341423	8.935000	0.000000
-37.341423	8.935000	0.000000
-36.341423	8.935000	0.000000
-35.341423	8.935000	0.000000
-34.341423	8.935000	0.000000
-33.341423	8.935000	0.000000
-32.341423	8.935000	0.000000
-31.341423	8.935000	0.000000
-30.341423	8.935000	0.000000
-29.341423	8.935000	0.000000
-28.341423	8.935000	0.000000
-27.341423	8.935000	0.000000
-26.341423	8.935000	0.000000
-25.341423	8.935000	28.219917
-24.341423	8.935000	28.184969
-23.341423	8.935000	11.258383
-22.341423	8.935000	1843.144043
-21.341423	8.935000	0.000000
-20.341423	8.935000	0.000000
-19.341423	8.935000	0.000000
-18.341423	8.935000	0.000000
-17.341423	8.935000	0.000000
-16.341423	8.935000	0.000000
-15.341423	8.935000	0.000000
-14.341423	8.935000	0.000000
-13.341423	8.935000	0.000000
-12.341423	8.935000	0.000000
-11.341423	8.935000	0.000000
-10.341423	8.935000	8.738811
-9.341423	8.935000	18.379446
-8.341423	8.935000	4.038537
-7.341423	8.935000	8.499115
-6.341423	8.935000	11.611000
-5.341423	8.935000	5.741286
-4.341423	8.935000	8.611537
-3.341423	8.935000	0.000000
-2.341423	8.935000	15.816194
-1.341423	8.935000	0.000000
-0.341423	8.935000	0.000000
0.658577	8.935000	0.000000
1.658577	8.935000	0.000000
2.658577	8.935000	1164.374756
3.658577	8.935000	116.503929
4.658577	8.935000	0.000000
5.658577	8.935000	3.873817
6.658577	8.935000	27.255795
7.658577	8.935000	16.193012
8.658577	8.935000	6.483848
9.658577	8.935000	5.241608
10.658577	8.935000	5.901534
11.658577	8.935000	4.557332
12.658577	8.935000	110.068024
13.658577	8.935000	29.868109
14.658577	8.935000	20.728754
15.658577	8.935000	33.126797
16.658577	8.935000	29.798031
17.658577	8.935000	0.000000
18.658577	8.935000	33.267147
19.658577	8.935000	32.843285
20.658577	8.935000	34.198750
21.658577	8.935000	31.747597
22.658577	8.935000	33.969810
23.658577	8.935000	33.570171
24.658577	8.935000	17.686041
-39.341423	9.935000	0.000000
-38.341423	9.935000	0.000000
-37.341423	9.935000	0.000000
-36.341423	9.935000	0.000000
-35.341423	9.935000	0.000000
-34.341423	9.935000	0.000000
-33.341423	9.935000	0.000000
-32.341423	9.935000	0.000000
-31.341423	9.935000	0.000000
-30.341423	9.935000	0.000000
-29.341423	9.935000	0.000000
-28.341423	9.935000	7.449870
-27.341423	9.935000	49.940277
-26.341423	9.935000	0.000000
-25.341423	9.935000	10.923562
-24.341423	9.935000	26.851547
-23.341423	9.935000	15.680316
-22.341423	9.935000	0.000000
-21.341423	9.935000	0.000000
-20.341423	9.935000	19.364464
-19.341423	9.935000	0.000000
-18.341423	9.935000	4.198070
-17.341423	9.935000	0.000000
-16.341423	9.935000	19.556498
-15.341423	9.935000	0.000000
-14.341423	9.935000	0.000000
-13.341423	9.935000	0.000000
-12.341423	9.935000	0.000000
-11.341423	9.935000	0.000000
-10.341423	9.935000	0.000000
-9.341423	9.935000	2.673977
-8.341423	9.935000	0.000000
-7.341423	9.935000	0.000000
-6.341423	9.935000	0.000000
-5.341423	9.935000	0.000000
-4.341423	9.935000	966.135803
-3.341423	9.935000	109.588249
-2.341423	9.935000	0.000000
-1.341423	9.935000	0.000000
-0.341423	9.935000	0.000000
0.658577	9.935000	81.567390
1.658577	9.935000	16.845552
2.658577	9.935000	0.000000
3.658577	9.935000	0.000000
4.658577	9.935000	17.130346
5.658577	9.935000	0.000000
6.658577	9.935000	3.219720
7.658577	9.935000	6.279087
8.658577	9.935000	1.569802
9.658577	9.935000	11.424943
10.658577	9.935000	0.000000
11.658577	9.935000	20.150274
12.658577	9.935000	28.247240
13.658577	9.935000	34.767296
14.658577	9.935000	35.701962
15.658577	9.935000	34.076576
16.658577	9.935000	33.991138
17.658577	9.935000	34.340656
18.658577	9.935000	37.372856
19.658577	9.935000	36.746555
20.658577	9.935000	28.512854
21.658577	9.935000	23.270784
22.658577	9.935000	27.500366
23.658577	9.935000	37.053898
24.658577	9.935000	33.810558
-39.341423	10.935000	0.000000
-38.341423	10.935000	0.000000
-37.341423	10.935000	0.000000
-36.341423	10.935000	0.000000
-35.341423	10.935000	0.000000
-34.341423	10.935000	0.000000
-33.341423	10.935000	0.000000
-32.341423	10.935000	0.000000
-31.341423	10.935000	0.000000
-30.341423	10.935000	0.000000
-29.341423	10.935000	0.000000
-28.341423	10.935000	0.000000
-27.341423	10.935000	8.557532
-26.341423	10.935000	16.337616
-25.341423	10.935000	29.431307
-24.341423	10.935000	35.147724
-23.341423	10.935000	30.881790
-22.341423	10.935000	9.662834
-21.341423	10.935000	20.942909
-20.341423	10.935000	15.760868
-19.341423	10.935000	0.000000
-18.341423	10.935000	0.000000
-17.341423	10.935000	54.851597
-16.341423	10.935000	28.816151
-15.341423	10.935000	0.000000
-14.341423	10.935000	2.122847
-13.341423	10.935000	0.000000
-12.341423	10.935000	0.000000
-11.341423	10.935000	0.000000
-10.341423	10.935000	7.948611
-9.341423	10.935000	1.910570
-8.341423	10.935000	17.669859
-7.341423	10.935000	37.271141
-6.341423	10.935000	0.000000
-5.341423	10.935000	0.000000
-4.341423	10.935000	0.000000
-3.341423	10.935000	19.157658
-2.341423	10.935000	4.321441
-1.341423	10.935000	0.000000
-0.341423	10.935000	0.000000
0.658577	10.935000	0.000000
1.658577	10.935000	31.283157
2.658577	10.935000	0.000000
3.658577	10.935000	0.000000
4.658577	10.935000	7.389035
5.658577	10.935000	5.745552
6.658577	10.935000	0.000000
7.658577	10.935000	0.000000
8.658577	10.935000	26.634661
9.658577	10.935000	23.445698
10.658577	10.935000	23.931757
11.658577	10.935000	63.039932
12.658577	10.935000	19.043068
13.658577	10.935000	34.190548
14.658577	10.935000	34.069744
15.658577	10.935000	39.011459
16.658577	10.935000	36.753067
17.658577	10.935000	32.341236
18.658577	10.935000	33.810822
19.658577	10.935000	39.603394
20.658577	10.935000	20.369352
21.658577	10.935000	14.561954
22.658577	10.935000	17.676958
23.658577	10.935000	26.431883
24.658577	10.935000	33.103168
-39.341423	11.935000	0.000000
-38.341423	11.935000	0.000000
-37.341423	11.935000	0.000000
-36.341423	11.935000	0.000000
-35.341423	11.935000	0.000000
-34.341423	11.935000	0.000000
-33.341423	11.935000	0.000000
-32.341423	11.935000	0.000000
-31.341423	11.935000	0.000000
-30.341423	11.935000	0.000000
-29.341423	11.935000	0.000000
-28.341423	11.935000	0.000000
-27.341423	11.935000	30.119066
-26.341423	11.935000	17.988888
-25.341423	11.935000	32.644627
-24.341423	11.935000	31.881556
-23.341423	11.935000	21.347832
-22.341423	11.935000	23.740978
-21.341423	11.935000	19.620615
-20.341423	11.935000	15.669102
-19.341423	11.935000	0.000000
-18.341423	11.935000	11.142039
-17.341423	11.935000	12.079438
-16.341423	11.935000	7.914596
-15.341423	11.935000	0.000000
-14.341423	11.935000	0.000000
-13.341423	11.935000	0.000000
-12.341423	11.935000	0.000000
-11.341423	11.935000	0.000000
-10.341423	11.935000	3.378701
-9.341423	11.935000	8.529058
-8.341423	11.935000	8.320202
-7.341423	11.935000	136.726456
-6.341423	11.935000	13.447567
-5.341423	11.935000	0.000000
-4.341423	11.935000	0.000000
-3.341423	11.935000	22.586092
-2.341423	11.935000	25.863525
-1.341423	11.935000	0.000000
-0.341423	11.935000	0.000000
0.658577	11.935000	0.000000
1.658577	11.935000	0.000000
2.658577	11.935000	0.000000
3.658577	11.935000	0.000000
4.658577	11.935000	0.000000
5.658577	11.935000	0.000000
6.658577	11.935000	5.606412
7.658577	11.935000	0.000000
8.658577	11.935000	0.000000
9.658577	11.935000	0.000000
10.658577	11.935000	0.000000
11.658577	11.935000	0.000000
12.658577	11.935000	9.430494
13.658577	11.935000	25.739883
14.658577	11.935000	35.792271
15.658577	11.935000	34.172726
16.658577	11.935000	42.088955
17.658577	11.935000	33.269562
18.658577	11.935000	34.234524
19.658577	11.935000	35.709038
20.658577	11.935000	32.942059
21.658577	11.935000	26.900663
22.658577	11.935000	16.782763
23.658577	11.935000	14.214025
24.658577	11.935000	17.249355
-39.341423	12.935000	0.000000
-38.341423	12.935000	0.000000
-37.341423	12.935000	0.000000
-36.341423	12.935000	0.000000
-35.341423	12.935000	0.000000
-34.341423	12.935000	0.000000
-33.341423	12.935000	0.000000
-32.341423	12.935000	0.000000
-31.341423	12.935000	0.000000
-30.341423	12.935000	0.000000
-29.341423	12.935000	0.000000
-28.341423	12.935000	8.911726
-27.341423	12.935000	23.081652
-26.341423	12.935000	25.507364
-25.341423	12.935000	34.341736
-24.341423	12.935000	25.009590
-23.341423	12.935000	0.000000
-22.341423	12.935000	28.923243
-21.341423	12.935000	3.088372
-20.341423	12.935000	0.000000
-19.341423	12.935000	0.000000
-18.341423	12.935000	0.000000
-17.341423	12.935000	9.893927
-16.341423	12.935000	10.106059
-15.341423	12.935000	0.000000
-14.341423	12.935000	0.000000
-13.341423	12.935000	0.000000
-12.341423	12.935000	0.000000
-11.341423	12.935000	0.000000
-10.341423	12.935000	0.000000
-9.341423	12.935000	0.000000
-8.341423	12.935000	0.000000
-7.341423	12.935000	58.905945
-6.341423	12.935000	34.468193
-5.341423	12.935000	20.191343
-4.341423	12.935000	0.000000
-3.341423	12.935000	2000.000000
-2.341423	12.935000	6.081386
-1.341423	12.935000	0.000000
-0.341423	12.935000	17.547092
0.658577	12.935000	0.000000
1.658577	12.935000	0.000000
2.658577	12.935000	0.000000
3.658577	12.935000	8.516432
4.658577	12.935000	10.025514
5.658577	12.935000	19.249159
6.658577	12.935000	0.000000
7.658577	12.935000	0.000000
8.658577	12.935000	10.161375
9.658577	12.935000	0.000000
10.658577	12.935000	0.000000
11.658577	12.935000	0.000000
12.658577	12.935000	26.047302
13.658577	12.935000	27.328087
14.658577	12.935000	37.984547
15.658577	12.935000	33.044125
16.658577	12.935000	32.776363
17.658577	12.935000	23.556051
18.658577	12.935000	32.680191
19.658577	12.935000	36.571800
20.658577	12.935000	36.277763
21.658577	12.935000	37.635372
22.658577	12.935000	27.167463
23.658577	12.935000	25.084715
24.658577	12.935000	30.671501
-39.341423	13.935000	0.000000
-38.341423	13.935000	0.000000
-37.341423	13.935000	0.000000
-36.341423	13.935000	0.000000
-35.341423	13.935000	0.000000
-34.341423	13.935000	0.000000
-33.341423	13.935000	0.000000
-32.341423	13.935000	0.000000
-31.341423	13.935000	0.000000
-30.341423	13.935000	0.000000
-29.341423	13.935000	0.000000
-28.341423	13.935000	0.000000
-27.341423	13.935000	7.233654
-26.341423	13.935000	0.000000
-25.341423	13.935000	24.963232
-24.341423	13.935000	21.867609
-23.341423	13.935000	2.686530
-22.341423	13.935000	0.000000
-21.341423	13.935000	0.000000
-20.341423	13.935000	0.000000
-19.341423	13.935000	0.000000
-18.341423	13.935000	0.000000
-17.341423	13.935000	20.999626
-16.341423	13.935000	9.752700
-15.341423	13.935000	0.000000
-14.341423	13.935000	0.000000
-13.341423	13.935000	7.433928
-12.341423	13.935000	25.247341
-11.341423	13.935000	12.085155
-10.341423	13.935000	25.604649
-9.341423	13.935000	13.542834
-8.341423	13.935000	8.449352
-7.341423	13.935000	76.932472
-6.341423	13.935000	17.235775
-5.341423	13.935000	10.264629
-4.341423	13.935000	179.226196
-3.341423	13.935000	0.000000
-2.341423	13.935000	18.972881
-1.341423	13.935000	9.304908
-0.341423	13.935000	257.814362
0.658577	13.935000	0.000000
1.658577	13.935000	0.000000
2.658577	13.935000	0.000000
3.658577	13.935000	26.335814
4.658577	13.935000	33.564407
5.658577	13.935000	34.464577
6.658577	13.935000	12.976590
7.658577	13.935000	0.000000
8.658577	13.935000	1659.452393
9.658577	13.935000	0.000000
10.658577	13.935000	0.000000
11.658577	13.935000	0.000000
12.658577	13.935000	8.123425
13.658577	13.935000	30.969433
14.658577	13.935000	34.171593
15.658577	13.935000	34.260376
16.658577	13.935000	35.174648
17.658577	13.935000	38.894848
18.658577	13.935000	35.190811
19.658577	13.935000	36.956699
20.658577	13.935000	33.614182
21.658577	13.935000	38.333214
22.658577	13.935000	34.292366
23.658577	13.935000	35.570858
24.658577	13.935000	36.893562
-39.341423	14.935000	0.000000
-38.341423	14.935000	0.000000
-37.341423	14.935000	0.000000
-36.341423	14.935000	0.000000
-35.341423	14.935000	0.000000
-34.341423	14.935000	0.000000
-33.341423	14.935000	0.000000
-32.341423	14.935000	0.000000
-31.341423	14.935000	0.000000
-30.341423	14.935000	0.000000
-29.341423	14.935000	0.000000
-28.341423	14.935000	0.000000
-27.341423	14.935000	12.938383
-26.341423	14.935000	0.000000
-25.341423	14.935000	7.217394
-24.341423	14.935000	27.552874
-23.341423	14.935000	29.177361
-22.341423	14.935000	22.631479
-21.341423	14.935000	0.000000
-20.341423	14.935000	0.000000
-19.341423	14.935000	0.000000
-18.341423	14.935000	0.000000
-17.341423	14.935000	18.367098
-16.341423	14.935000	0.000000
-15.341423	14.935000	0.000000
-14.341423	14.935000	17.401459
-13.341423	14.935000	14.584954
-12.341423	14.935000	15.651963
-11.341423	14.935000	25.987566
-10.341423	14.935000	36.817791
-9.341423	14.935000	35.177876
-8.341423	14.935000	17.308327
-7.341423	14.935000	0.000000
-6.341423	14.935000	0.000000
-5.341423	14.935000	0.000000
-4.341423	14.935000	0.000000
-3.341423	14.935000	16.193672
-2.341423	14.935000	30.691628
-1.341423	14.935000	0.000000
-0.341423	14.935000	0.000000
0.658577	14.935000	0.000000
1.658577	14.935000	0.000000
2.658577	14.935000	0.000000
3.658577	14.935000	25.692142
4.658577	14.935000	37.143692
5.658577	14.935000	29.665039
6.658577	14.935000	35.362370
7.658577	14.935000	33.177967
8.658577	14.935000	10.219505
9.658577	14.935000	158.345825
10.658577	14.935000	0.000000
11.658577	14.935000	0.000000
12.658577	14.935000	12.356044
13.658577	14.935000	33.593040
14.658577	14.935000	37.946331
15.658577	14.935000	31.381996
16.658577	14.935000	37.232647
17.658577	14.935000	39.179028
18.658577	14.935000	34.627613
19.658577	14.935000	36.854065
20.658577	14.935000	37.494301
21.658577	14.935000	33.667034
22.658577	14.935000	35.481049
23.658577	14.935000	36.748756
24.658577	14.935000	39.409679
-39.341423	15.935000	0.000000
-38.341423	15.935000	0.000000
-37.341423	15.935000	0.000000
-36.341423	15.935000	0.000000
-35.341423	15.935000	0.000000
-34.341423	15.935000	0.000000
-33.341423	15.935000	0.000000
-32.341423	15.935000	0.000000
-31.341423	15.935000	0.000000
-30.341423	15.935000	0.000000
-29.341423	15.935000	0.000000
-28.341423	15.935000	32.060963
-27.341423	15.935000	0.000000
-26.341423	15.935000	0.000000
-25.341423	15.935000	0.000000
-24.341423	15.935000	11.721904
-23.341423	15.935000	34.466282
-22.341423	15.935000	34.398296
-21.341423	15.935000	25.445444
-20.341423	15.935000	6.381546
-19.341423	15.935000	0.000000
-18.341423	15.935000	0.000000
-17.341423	15.935000	0.000000
-16.341423	15.935000	0.000000
-15.341423	15.935000	0.000000
-14.341423	15.935000	0.000000
-13.341423	15.935000	0.000000
-12.341423	15.935000	0.000000
-11.341423	15.935000	0.000000
-10.341423	15.935000	36.462395
-9.341423	15.935000	33.907009
-8.341423	15.935000	35.453175
-7.341423	15.935000	12.739314
-6.341423	15.935000	33.776409
-5.341423	15.935000	3.279736
-4.341423	15.935000	1.368802
-3.341423	15.935000	6.609792
-2.341423	15.935000	17.271866
-1.341423	15.935000	9.286262
-0.341423	15.935000	0.000000
0.658577	15.935000	0.000000
1.658577	15.935000	0.000000
2.658577	15.935000	0.000000
3.658577	15.935000	23.469257
4.658577	15.935000	38.115524
5.658577	15.935000	34.746780
6.658577	15.935000	31.944757
7.658577	15.935000	33.604393
8.658577	15.935000	34.772800
9.658577	15.935000	0.000000
10.658577	15.935000	8.966268
11.658577	15.935000	27.824171
12.658577	15.935000	26.186743
13.658577	15.935000	31.278873
14.658577	15.935000	36.204018
15.658577	15.935000	37.893993
16.658577	15.935000	35.895039
17.658577	15.935000	35.164948
18.658577	15.935000	34.421806
19.658577	15.935000	34.393517
20.658577	15.935000	37.676472
21.658577	15.935000	35.503315
22.658577	15.935000	34.291973
23.658577	15.935000	38.525116
24.658577	15.935000	35.701195
