#XList		#YList		#IList		
-39.341423	-21.065000	966.258118
-38.341423	-21.065000	962.541504
-37.341423	-21.065000	963.886780
-36.341423	-21.065000	987.220642
-35.341423	-21.065000	966.960876
-34.341423	-21.065000	960.575195
-33.341423	-21.065000	900.000000
-32.341423	-21.065000	961.058533
-31.341423	-21.065000	960.469116
-30.341423	-21.065000	900.000000
-29.341423	-21.065000	1100.000000
-28.341423	-21.065000	963.554504
-27.341423	-21.065000	961.672119
-26.341423	-21.065000	965.530212
-25.341423	-21.065000	965.361145
-24.341423	-21.065000	968.298584
-23.341423	-21.065000	967.788696
-22.341423	-21.065000	969.619446
-21.341423	-21.065000	963.366394
-20.341423	-21.065000	966.723755
-19.341423	-21.065000	966.936707
-18.341423	-21.065000	967.247498
-17.341423	-21.065000	962.440857
-16.341423	-21.065000	900.000000
-15.341423	-21.065000	954.340881
-14.341423	-21.065000	962.584045
-13.341423	-21.065000	1100.000000
-12.341423	-21.065000	962.826477
-11.341423	-21.065000	964.444824
-10.341423	-21.065000	965.389893
-9.341423	-21.065000	965.669922
-8.341423	-21.065000	965.581116
-7.341423	-21.065000	940.265564
-6.341423	-21.065000	967.036011
-5.341423	-21.065000	968.156555
-4.341423	-21.065000	969.266479
-3.341423	-21.065000	966.672668
-2.341423	-21.065000	962.406372
-1.341423	-21.065000	924.066528
-0.341423	-21.065000	964.321899
0.658577	-21.065000	968.998291
1.658577	-21.065000	966.334717
2.658577	-21.065000	963.181763
3.658577	-21.065000	964.256897
4.658577	-21.065000	942.174072
5.658577	-21.065000	958.538879
6.658577	-21.065000	967.055054
7.658577	-21.065000	968.815002
8.658577	-21.065000	966.643250
9.658577	-21.065000	969.533508
10.658577	-21.065000	970.776367
11.658577	-21.065000	968.740662
12.658577	-21.065000	963.500549
13.658577	-21.065000	971.318054
14.658577	-21.065000	965.178223
15.658577	-21.065000	980.450256
16.658577	-21.065000	963.453735
17.658577	-21.065000	965.736389
18.658577	-21.065000	963.164307
19.658577	-21.065000	967.224121
20.658577	-21.065000	961.423950
21.658577	-21.065000	967.438049
22.658577	-21.065000	967.865845
23.658577	-21.065000	968.586426
24.658577	-21.065000	966.156433
-39.341423	-20.065000	963.574158
-38.341423	-20.065000	961.529236
-37.341423	-20.065000	965.437317
-36.341423	-20.065000	965.294556
-35.341423	-20.065000	967.006531
-34.341423	-20.065000	948.715088
-33.341423	-20.065000	958.451660
-32.341423	-20.065000	963.430542
-31.341423	-20.065000	959.617126
-30.341423	-20.065000	957.423645
-29.341423	-20.065000	964.549194
-28.341423	-20.065000	967.370361
-27.341423	-20.065000	951.348938
-26.341423	-20.065000	960.724670
-25.341423	-20.065000	1100.000000
-24.341423	-20.065000	964.840637
-23.341423	-20.065000	969.170776
-22.341423	-20.065000	968.728271
-21.341423	-20.065000	957.210449
-20.341423	-20.065000	960.910583
-19.341423	-20.065000	976.918396
-18.341423	-20.065000	963.217041
-17.341423	-20.065000	900.000000
-16.341423	-20.065000	962.514709
-15.341423	-20.065000	962.267761
-14.341423	-20.065000	966.456909
-13.341423	-20.065000	962.995605
-12.341423	-20.065000	964.035156
-11.341423	-20.065000	966.412964
-10.341423	-20.065000	968.626099
-9.341423	-20.065000	961.986755
-8.341423	-20.065000	965.869080
-7.341423	-20.065000	982.195862
-6.341423	-20.065000	966.490601
-5.341423	-20.065000	956.946655
-4.341423	-20.065000	966.072632
-3.341423	-20.065000	966.354492
-2.341423	-20.065000	967.663818
-1.341423	-20.065000	962.927490
-0.341423	-20.065000	971.490723
0.658577	-20.065000	1100.000000
1.658577	-20.065000	965.910767
2.658577	-20.065000	965.752380
3.658577	-20.065000	960.811157
4.658577	-20.065000	964.864441
5.658577	-20.065000	971.046021
6.658577	-20.065000	967.934692
7.658577	-20.065000	967.097778
8.658577	-20.065000	966.600098
9.658577	-20.065000	968.266113
10.658577	-20.065000	964.773071
11.658577	-20.065000	966.768982
12.658577	-20.065000	966.427612
13.658577	-20.065000	975.314087
14.658577	-20.065000	1100.000000
15.658577	-20.065000	1009.375488
16.658577	-20.065000	1100.000000
17.658577	-20.065000	968.145264
18.658577	-20.065000	1051.827271
19.658577	-20.065000	962.381042
20.658577	-20.065000	965.778809
21.658577	-20.065000	966.113770
22.658577	-20.065000	966.257813
23.658577	-20.065000	969.002625
24.658577	-20.065000	965.659668
-39.341423	-19.065000	962.036560
-38.341423	-19.065000	965.570496
-37.341423	-19.065000	966.325378
-36.341423	-19.065000	965.240845
-35.341423	-19.065000	967.302063
-34.341423	-19.065000	969.071045
-33.341423	-19.065000	963.953857
-32.341423	-19.065000	959.815491
-31.341423	-19.065000	956.340210
-30.341423	-19.065000	959.581543
-29.341423	-19.065000	900.000000
-28.341423	-19.065000	963.252136
-27.341423	-19.065000	962.732666
-26.341423	-19.065000	1052.960571
-25.341423	-19.065000	949.804077
-24.341423	-19.065000	965.343018
-23.341423	-19.065000	900.000000
-22.341423	-19.065000	948.896973
-21.341423	-19.065000	974.639465
-20.341423	-19.065000	963.776855
-19.341423	-19.065000	963.248535
-18.341423	-19.065000	970.032288
-17.341423	-19.065000	961.242065
-16.341423	-19.065000	957.254578
-15.341423	-19.065000	964.879028
-14.341423	-19.065000	966.468933
-13.341423	-19.065000	965.808289
-12.341423	-19.065000	960.479309
-11.341423	-19.065000	966.818115
-10.341423	-19.065000	955.442810
-9.341423	-19.065000	964.598633
-8.341423	-19.065000	975.220642
-7.341423	-19.065000	968.583374
-6.341423	-19.065000	909.065674
-5.341423	-19.065000	964.296936
-4.341423	-19.065000	962.635925
-3.341423	-19.065000	964.931458
-2.341423	-19.065000	969.956055
-1.341423	-19.065000	900.000000
-0.341423	-19.065000	964.142639
0.658577	-19.065000	964.869629
1.658577	-19.065000	900.000000
2.658577	-19.065000	966.948364
3.658577	-19.065000	966.326050
4.658577	-19.065000	960.966248
5.658577	-19.065000	966.810242
6.658577	-19.065000	966.241699
7.658577	-19.065000	966.892883
8.658577	-19.065000	963.599365
9.658577	-19.065000	962.539551
10.658577	-19.065000	965.459534
11.658577	-19.065000	961.841614
12.658577	-19.065000	965.213562
13.658577	-19.065000	975.285217
14.658577	-19.065000	968.034729
15.658577	-19.065000	965.517273
16.658577	-19.065000	958.547302
17.658577	-19.065000	967.556885
18.658577	-19.065000	965.367859
19.658577	-19.065000	964.561523
20.658577	-19.065000	965.115662
21.658577	-19.065000	967.735779
22.658577	-19.065000	966.347778
23.658577	-19.065000	968.201538
24.658577	-19.065000	964.904358
-39.341423	-18.065000	962.624695
-38.341423	-18.065000	963.304138
-37.341423	-18.065000	963.325195
-36.341423	-18.065000	965.807678
-35.341423	-18.065000	966.595520
-34.341423	-18.065000	967.657471
-33.341423	-18.065000	967.811584
-32.341423	-18.065000	900.000000
-31.341423	-18.065000	962.406311
-30.341423	-18.065000	962.997803
-29.341423	-18.065000	919.392334
-28.341423	-18.065000	962.296265
-27.341423	-18.065000	962.493286
-26.341423	-18.065000	964.660706
-25.341423	-18.065000	966.755066
-24.341423	-18.065000	1100.000000
-23.341423	-18.065000	963.259155
-22.341423	-18.065000	967.092468
-21.341423	-18.065000	960.457275
-20.341423	-18.065000	976.008179
-19.341423	-18.065000	960.431274
-18.341423	-18.065000	963.466553
-17.341423	-18.065000	965.071472
-16.341423	-18.065000	965.170227
-15.341423	-18.065000	957.592651
-14.341423	-18.065000	962.743103
-13.341423	-18.065000	960.257141
-12.341423	-18.065000	963.103516
-11.341423	-18.065000	900.000000
-10.341423	-18.065000	962.319092
-9.341423	-18.065000	962.276489
-8.341423	-18.065000	973.327393
-7.341423	-18.065000	963.705139
-6.341423	-18.065000	1063.569824
-5.341423	-18.065000	967.675354
-4.341423	-18.065000	966.694031
-3.341423	-18.065000	947.212402
-2.341423	-18.065000	968.129395
-1.341423	-18.065000	968.538086
-0.341423	-18.065000	966.342102
0.658577	-18.065000	965.653259
1.658577	-18.065000	966.531616
2.658577	-18.065000	966.354736
3.658577	-18.065000	964.807983
4.658577	-18.065000	969.527588
5.658577	-18.065000	965.116516
6.658577	-18.065000	967.503357
7.658577	-18.065000	966.278076
8.658577	-18.065000	965.069092
9.658577	-18.065000	965.673828
10.658577	-18.065000	966.619629
11.658577	-18.065000	962.332947
12.658577	-18.065000	966.367554
13.658577	-18.065000	961.460510
14.658577	-18.065000	950.630432
15.658577	-18.065000	970.725220
16.658577	-18.065000	961.390625
17.658577	-18.065000	967.981201
18.658577	-18.065000	985.132141
19.658577	-18.065000	966.774109
20.658577	-18.065000	967.969360
21.658577	-18.065000	965.990234
22.658577	-18.065000	900.383362
23.658577	-18.065000	966.853027
24.658577	-18.065000	963.788574
-39.341423	-17.065000	960.186157
-38.341423	-17.065000	962.580261
-37.341423	-17.065000	963.988037
-36.341423	-17.065000	966.927612
-35.341423	-17.065000	966.832092
-34.341423	-17.065000	969.216064
-33.341423	-17.065000	966.096985
-32.341423	-17.065000	963.699280
-31.341423	-17.065000	1064.732056
-30.341423	-17.065000	960.891052
-29.341423	-17.065000	964.071228
-28.341423	-17.065000	950.418640
-27.341423	-17.065000	960.641479
-26.341423	-17.065000	1000.721191
-25.341423	-17.065000	962.746033
-24.341423	-17.065000	965.509094
-23.341423	-17.065000	967.020813
-22.341423	-17.065000	965.928162
-21.341423	-17.065000	1012.334473
-20.341423	-17.065000	970.349854
-19.341423	-17.065000	964.938965
-18.341423	-17.065000	965.835449
-17.341423	-17.065000	965.982666
-16.341423	-17.065000	964.879761
-15.341423	-17.065000	962.988708
-14.341423	-17.065000	959.169739
-13.341423	-17.065000	960.500061
-12.341423	-17.065000	966.417297
-11.341423	-17.065000	962.515015
-10.341423	-17.065000	966.624146
-9.341423	-17.065000	948.175903
-8.341423	-17.065000	902.438354
-7.341423	-17.065000	966.627563
-6.341423	-17.065000	963.820251
-5.341423	-17.065000	959.295044
-4.341423	-17.065000	964.460205
-3.341423	-17.065000	954.843933
-2.341423	-17.065000	964.104004
-1.341423	-17.065000	965.911316
-0.341423	-17.065000	965.995239
0.658577	-17.065000	966.061462
1.658577	-17.065000	966.599121
2.658577	-17.065000	962.958923
3.658577	-17.065000	966.990051
4.658577	-17.065000	952.690369
5.658577	-17.065000	966.483765
6.658577	-17.065000	959.496216
7.658577	-17.065000	964.768799
8.658577	-17.065000	964.062683
9.658577	-17.065000	964.802063
10.658577	-17.065000	963.351501
11.658577	-17.065000	967.344604
12.658577	-17.065000	964.607300
13.658577	-17.065000	968.867554
14.658577	-17.065000	959.846802
15.658577	-17.065000	965.622437
16.658577	-17.065000	961.704895
17.658577	-17.065000	965.936401
18.658577	-17.065000	963.254883
19.658577	-17.065000	966.222778
20.658577	-17.065000	966.254822
21.658577	-17.065000	967.604614
22.658577	-17.065000	965.924927
23.658577	-17.065000	1041.743530
24.658577	-17.065000	969.550110
-39.341423	-16.065000	966.440491
-38.341423	-16.065000	953.311279
-37.341423	-16.065000	966.961426
-36.341423	-16.065000	966.539856
-35.341423	-16.065000	966.213379
-34.341423	-16.065000	961.351440
-33.341423	-16.065000	900.000000
-32.341423	-16.065000	964.183838
-31.341423	-16.065000	963.502869
-30.341423	-16.065000	966.089600
-29.341423	-16.065000	964.323975
-28.341423	-16.065000	963.918396
-27.341423	-16.065000	962.863464
-26.341423	-16.065000	960.453003
-25.341423	-16.065000	966.013062
-24.341423	-16.065000	968.025024
-23.341423	-16.065000	969.730225
-22.341423	-16.065000	908.871460
-21.341423	-16.065000	959.619690
-20.341423	-16.065000	967.181885
-19.341423	-16.065000	968.962158
-18.341423	-16.065000	968.746765
-17.341423	-16.065000	961.580688
-16.341423	-16.065000	962.098511
-15.341423	-16.065000	961.924744
-14.341423	-16.065000	960.304932
-13.341423	-16.065000	962.492065
-12.341423	-16.065000	965.176514
-11.341423	-16.065000	964.769592
-10.341423	-16.065000	968.210999
-9.341423	-16.065000	939.451660
-8.341423	-16.065000	964.301453
-7.341423	-16.065000	965.289673
-6.341423	-16.065000	960.986694
-5.341423	-16.065000	900.000000
-4.341423	-16.065000	1024.449707
-3.341423	-16.065000	960.570190
-2.341423	-16.065000	964.585815
-1.341423	-16.065000	961.563049
-0.341423	-16.065000	965.362244
0.658577	-16.065000	962.295593
1.658577	-16.065000	965.419800
2.658577	-16.065000	979.533630
3.658577	-16.065000	969.366455
4.658577	-16.065000	960.836243
5.658577	-16.065000	962.754211
6.658577	-16.065000	968.081299
7.658577	-16.065000	965.322510
8.658577	-16.065000	963.408508
9.658577	-16.065000	963.341919
10.658577	-16.065000	967.975159
11.658577	-16.065000	958.997803
12.658577	-16.065000	962.624084
13.658577	-16.065000	967.442505
14.658577	-16.065000	966.225281
15.658577	-16.065000	949.178406
16.658577	-16.065000	970.107422
17.658577	-16.065000	965.607361
18.658577	-16.065000	967.421021
19.658577	-16.065000	969.900635
20.658577	-16.065000	967.290466
21.658577	-16.065000	974.678955
22.658577	-16.065000	965.759155
23.658577	-16.065000	902.162781
24.658577	-16.065000	966.875427
-39.341423	-15.065000	962.974060
-38.341423	-15.065000	966.494629
-37.341423	-15.065000	967.253113
-36.341423	-15.065000	924.882385
-35.341423	-15.065000	959.045593
-34.341423	-15.065000	1100.000000
-33.341423	-15.065000	963.194458
-32.341423	-15.065000	962.608459
-31.341423	-15.065000	967.813171
-30.341423	-15.065000	966.993835
-29.341423	-15.065000	963.450378
-28.341423	-15.065000	967.684753
-27.341423	-15.065000	963.610474
-26.341423	-15.065000	961.647095
-25.341423	-15.065000	969.346069
-24.341423	-15.065000	963.153320
-23.341423	-15.065000	965.396240
-22.341423	-15.065000	968.468201
-21.341423	-15.065000	967.843933
-20.341423	-15.065000	968.730225
-19.341423	-15.065000	967.647034
-18.341423	-15.065000	900.000000
-17.341423	-15.065000	977.165344
-16.341423	-15.065000	959.086243
-15.341423	-15.065000	962.513916
-14.341423	-15.065000	969.527466
-13.341423	-15.065000	959.696106
-12.341423	-15.065000	965.782471
-11.341423	-15.065000	967.115234
-10.341423	-15.065000	951.953979
-9.341423	-15.065000	927.651917
-8.341423	-15.065000	913.943970
-7.341423	-15.065000	949.300781
-6.341423	-15.065000	950.134583
-5.341423	-15.065000	978.448975
-4.341423	-15.065000	964.793762
-3.341423	-15.065000	961.600403
-2.341423	-15.065000	964.448792
-1.341423	-15.065000	964.789063
-0.341423	-15.065000	963.920959
0.658577	-15.065000	964.552246
1.658577	-15.065000	967.352051
2.658577	-15.065000	963.642273
3.658577	-15.065000	968.968750
4.658577	-15.065000	978.252563
5.658577	-15.065000	960.712708
6.658577	-15.065000	961.298523
7.658577	-15.065000	964.327942
8.658577	-15.065000	966.252563
9.658577	-15.065000	961.987061
10.658577	-15.065000	965.888367
11.658577	-15.065000	966.216187
12.658577	-15.065000	966.131592
13.658577	-15.065000	967.909119
14.658577	-15.065000	965.481628
15.658577	-15.065000	968.081055
16.658577	-15.065000	966.509705
17.658577	-15.065000	971.000916
18.658577	-15.065000	941.388855
19.658577	-15.065000	965.835938
20.658577	-15.065000	966.898682
21.658577	-15.065000	961.790527
22.658577	-15.065000	960.064209
23.658577	-15.065000	966.060059
24.658577	-15.065000	966.756836
-39.341423	-14.065000	968.949707
-38.341423	-14.065000	963.389771
-37.341423	-14.065000	963.565979
-36.341423	-14.065000	960.696594
-35.341423	-14.065000	959.828186
-34.341423	-14.065000	962.676758
-33.341423	-14.065000	963.497314
-32.341423	-14.065000	958.063599
-31.341423	-14.065000	962.823975
-30.341423	-14.065000	965.110352
-29.341423	-14.065000	959.361328
-28.341423	-14.065000	962.484314
-27.341423	-14.065000	965.276794
-26.341423	-14.065000	963.798035
-25.341423	-14.065000	966.434570
-24.341423	-14.065000	967.230896
-23.341423	-14.065000	993.783813
-22.341423	-14.065000	902.819092
-21.341423	-14.065000	968.274963
-20.341423	-14.065000	964.691101
-19.341423	-14.065000	966.885559
-18.341423	-14.065000	965.877808
-17.341423	-14.065000	968.666931
-16.341423	-14.065000	998.596497
-15.341423	-14.065000	963.276367
-14.341423	-14.065000	963.347473
-13.341423	-14.065000	965.540222
-12.341423	-14.065000	960.488525
-11.341423	-14.065000	967.612976
-10.341423	-14.065000	963.229858
-9.341423	-14.065000	962.168884
-8.341423	-14.065000	966.724854
-7.341423	-14.065000	965.966919
-6.341423	-14.065000	964.341125
-5.341423	-14.065000	968.670044
-4.341423	-14.065000	965.799072
-3.341423	-14.065000	966.956238
-2.341423	-14.065000	966.334656
-1.341423	-14.065000	965.938354
-0.341423	-14.065000	966.149597
0.658577	-14.065000	963.504883
1.658577	-14.065000	963.566772
2.658577	-14.065000	965.277344
3.658577	-14.065000	936.568115
4.658577	-14.065000	966.852356
5.658577	-14.065000	959.935669
6.658577	-14.065000	962.040649
7.658577	-14.065000	963.616638
8.658577	-14.065000	966.072571
9.658577	-14.065000	964.174866
10.658577	-14.065000	968.056580
11.658577	-14.065000	965.892944
12.658577	-14.065000	967.641113
13.658577	-14.065000	958.920532
14.658577	-14.065000	966.921875
15.658577	-14.065000	967.259766
16.658577	-14.065000	966.274109
17.658577	-14.065000	967.783813
18.658577	-14.065000	966.243469
19.658577	-14.065000	965.160767
20.658577	-14.065000	964.909973
21.658577	-14.065000	968.918762
22.658577	-14.065000	971.529297
23.658577	-14.065000	964.232605
24.658577	-14.065000	965.151367
-39.341423	-13.065000	957.424866
-38.341423	-13.065000	959.944214
-37.341423	-13.065000	959.503662
-36.341423	-13.065000	964.355652
-35.341423	-13.065000	961.340637
-34.341423	-13.065000	963.630981
-33.341423	-13.065000	963.164124
-32.341423	-13.065000	960.228271
-31.341423	-13.065000	964.158997
-30.341423	-13.065000	965.110718
-29.341423	-13.065000	960.513489
-28.341423	-13.065000	965.071716
-27.341423	-13.065000	965.405701
-26.341423	-13.065000	963.387695
-25.341423	-13.065000	952.585144
-24.341423	-13.065000	1100.000000
-23.341423	-13.065000	960.317810
-22.341423	-13.065000	959.790405
-21.341423	-13.065000	940.363953
-20.341423	-13.065000	972.771362
-19.341423	-13.065000	968.803284
-18.341423	-13.065000	973.122864
-17.341423	-13.065000	961.813904
-16.341423	-13.065000	962.477295
-15.341423	-13.065000	977.505859
-14.341423	-13.065000	968.676941
-13.341423	-13.065000	968.883118
-12.341423	-13.065000	966.853333
-11.341423	-13.065000	967.985352
-10.341423	-13.065000	967.506226
-9.341423	-13.065000	903.605774
-8.341423	-13.065000	965.701965
-7.341423	-13.065000	964.854126
-6.341423	-13.065000	965.772217
-5.341423	-13.065000	966.672607
-4.341423	-13.065000	965.720642
-3.341423	-13.065000	962.006775
-2.341423	-13.065000	963.508850
-1.341423	-13.065000	965.050476
-0.341423	-13.065000	962.458130
0.658577	-13.065000	964.005249
1.658577	-13.065000	966.978760
2.658577	-13.065000	962.064392
3.658577	-13.065000	973.727783
4.658577	-13.065000	963.097717
5.658577	-13.065000	1100.000000
6.658577	-13.065000	960.725708
7.658577	-13.065000	960.275635
8.658577	-13.065000	966.383057
9.658577	-13.065000	968.138123
10.658577	-13.065000	968.499451
11.658577	-13.065000	967.858337
12.658577	-13.065000	966.032104
13.658577	-13.065000	954.787781
14.658577	-13.065000	966.521179
15.658577	-13.065000	966.838745
16.658577	-13.065000	964.950867
17.658577	-13.065000	962.096436
18.658577	-13.065000	967.816895
19.658577	-13.065000	900.687012
20.658577	-13.065000	965.356445
21.658577	-13.065000	960.915588
22.658577	-13.065000	962.369873
23.658577	-13.065000	900.000000
24.658577	-13.065000	941.865967
-39.341423	-12.065000	957.621094
-38.341423	-12.065000	964.284302
-37.341423	-12.065000	961.975220
-36.341423	-12.065000	967.834778
-35.341423	-12.065000	964.195618
-34.341423	-12.065000	960.767822
-33.341423	-12.065000	961.129761
-32.341423	-12.065000	966.520447
-31.341423	-12.065000	962.061646
-30.341423	-12.065000	962.309875
-29.341423	-12.065000	964.102783
-28.341423	-12.065000	967.436646
-27.341423	-12.065000	969.237305
-26.341423	-12.065000	1100.000000
-25.341423	-12.065000	937.827942
-24.341423	-12.065000	971.369385
-23.341423	-12.065000	959.199890
-22.341423	-12.065000	963.962463
-21.341423	-12.065000	944.373779
-20.341423	-12.065000	929.586853
-19.341423	-12.065000	913.641602
-18.341423	-12.065000	939.574829
-17.341423	-12.065000	971.941528
-16.341423	-12.065000	900.000000
-15.341423	-12.065000	905.897644
-14.341423	-12.065000	968.509033
-13.341423	-12.065000	968.241943
-12.341423	-12.065000	960.777527
-11.341423	-12.065000	964.712524
-10.341423	-12.065000	966.460144
-9.341423	-12.065000	965.475708
-8.341423	-12.065000	901.376160
-7.341423	-12.065000	966.865417
-6.341423	-12.065000	963.638611
-5.341423	-12.065000	963.983398
-4.341423	-12.065000	964.435059
-3.341423	-12.065000	965.571106
-2.341423	-12.065000	963.979553
-1.341423	-12.065000	966.111145
-0.341423	-12.065000	965.385559
0.658577	-12.065000	963.116943
1.658577	-12.065000	962.436829
2.658577	-12.065000	968.842041
3.658577	-12.065000	966.180908
4.658577	-12.065000	963.666199
5.658577	-12.065000	967.635437
6.658577	-12.065000	962.057922
7.658577	-12.065000	949.025940
8.658577	-12.065000	960.325073
9.658577	-12.065000	965.948853
10.658577	-12.065000	967.559692
11.658577	-12.065000	968.025696
12.658577	-12.065000	968.006470
13.658577	-12.065000	900.000122
14.658577	-12.065000	963.097961
15.658577	-12.065000	959.288696
16.658577	-12.065000	968.997559
17.658577	-12.065000	968.447449
18.658577	-12.065000	977.233521
19.658577	-12.065000	1047.713989
20.658577	-12.065000	977.207458
21.658577	-12.065000	972.772400
22.658577	-12.065000	929.431274
23.658577	-12.065000	973.688721
24.658577	-12.065000	960.807007
-39.341423	-11.065000	962.400391
-38.341423	-11.065000	961.275146
-37.341423	-11.065000	959.600159
-36.341423	-11.065000	960.996765
-35.341423	-11.065000	960.557678
-34.341423	-11.065000	964.426514
-33.341423	-11.065000	962.044922
-32.341423	-11.065000	964.775330
-31.341423	-11.065000	958.459229
-30.341423	-11.065000	960.223450
-29.341423	-11.065000	958.825439
-28.341423	-11.065000	962.415955
-27.341423	-11.065000	958.571960
-26.341423	-11.065000	962.744812
-25.341423	-11.065000	960.791443
-24.341423	-11.065000	976.910583
-23.341423	-11.065000	969.049438
-22.341423	-11.065000	968.264648
-21.341423	-11.065000	966.773560
-20.341423	-11.065000	964.257935
-19.341423	-11.065000	964.683411
-18.341423	-11.065000	948.128845
-17.341423	-11.065000	921.650146
-16.341423	-11.065000	900.129211
-15.341423	-11.065000	963.769653
-14.341423	-11.065000	966.013245
-13.341423	-11.065000	966.570801
-12.341423	-11.065000	963.017578
-11.341423	-11.065000	958.441895
-10.341423	-11.065000	966.785889
-9.341423	-11.065000	958.257568
-8.341423	-11.065000	965.189026
-7.341423	-11.065000	964.617676
-6.341423	-11.065000	962.761169
-5.341423	-11.065000	964.270203
-4.341423	-11.065000	964.857239
-3.341423	-11.065000	964.152771
-2.341423	-11.065000	962.474243
-1.341423	-11.065000	966.088989
-0.341423	-11.065000	961.816895
0.658577	-11.065000	963.708496
1.658577	-11.065000	964.724976
2.658577	-11.065000	964.605957
3.658577	-11.065000	966.613647
4.658577	-11.065000	967.177673
5.658577	-11.065000	900.000122
6.658577	-11.065000	1008.730713
7.658577	-11.065000	900.000000
8.658577	-11.065000	983.059143
9.658577	-11.065000	966.830017
10.658577	-11.065000	965.244751
11.658577	-11.065000	966.409241
12.658577	-11.065000	965.451416
13.658577	-11.065000	963.982727
14.658577	-11.065000	914.580627
15.658577	-11.065000	971.623047
16.658577	-11.065000	963.332275
17.658577	-11.065000	960.884644
18.658577	-11.065000	927.388855
19.658577	-11.065000	966.885437
20.658577	-11.065000	947.248413
21.658577	-11.065000	971.629944
22.658577	-11.065000	975.872131
23.658577	-11.065000	966.007141
24.658577	-11.065000	924.886169
-39.341423	-10.065000	954.697693
-38.341423	-10.065000	956.987061
-37.341423	-10.065000	966.168762
-36.341423	-10.065000	966.618469
-35.341423	-10.065000	962.704224
-34.341423	-10.065000	963.072632
-33.341423	-10.065000	959.744019
-32.341423	-10.065000	961.442688
-31.341423	-10.065000	960.106079
-30.341423	-10.065000	960.232300
-29.341423	-10.065000	959.022095
-28.341423	-10.065000	964.128357
-27.341423	-10.065000	958.833557
-26.341423	-10.065000	963.644470
-25.341423	-10.065000	1035.696411
-24.341423	-10.065000	964.008789
-23.341423	-10.065000	950.084106
-22.341423	-10.065000	967.749573
-21.341423	-10.065000	963.735107
-20.341423	-10.065000	966.714172
-19.341423	-10.065000	969.526733
-18.341423	-10.065000	971.502686
-17.341423	-10.065000	967.913025
-16.341423	-10.065000	963.806274
-15.341423	-10.065000	963.994263
-14.341423	-10.065000	969.755920
-13.341423	-10.065000	964.545715
-12.341423	-10.065000	963.405884
-11.341423	-10.065000	965.105103
-10.341423	-10.065000	965.404541
-9.341423	-10.065000	965.436829
-8.341423	-10.065000	956.314880
-7.341423	-10.065000	978.170349
-6.341423	-10.065000	963.851074
-5.341423	-10.065000	966.366089
-4.341423	-10.065000	1031.983154
-3.341423	-10.065000	967.741577
-2.341423	-10.065000	1041.246094
-1.341423	-10.065000	961.875000
-0.341423	-10.065000	961.671021
0.658577	-10.065000	962.079224
1.658577	-10.065000	962.852539
2.658577	-10.065000	981.025269
3.658577	-10.065000	979.685242
4.658577	-10.065000	966.047119
5.658577	-10.065000	901.335815
6.658577	-10.065000	900.785034
7.658577	-10.065000	1056.021240
8.658577	-10.065000	967.059692
9.658577	-10.065000	967.393066
10.658577	-10.065000	966.806030
11.658577	-10.065000	965.411194
12.658577	-10.065000	968.028381
13.658577	-10.065000	968.048157
14.658577	-10.065000	970.920776
15.658577	-10.065000	971.934448
16.658577	-10.065000	963.605042
17.658577	-10.065000	958.198547
18.658577	-10.065000	956.727417
19.658577	-10.065000	953.647827
20.658577	-10.065000	900.000000
21.658577	-10.065000	970.205078
22.658577	-10.065000	969.877136
23.658577	-10.065000	1078.403687
24.658577	-10.065000	969.056519
-39.341423	-9.065000	959.071594
-38.341423	-9.065000	959.389893
-37.341423	-9.065000	959.708252
-36.341423	-9.065000	958.390381
-35.341423	-9.065000	956.672546
-34.341423	-9.065000	1056.595093
-33.341423	-9.065000	960.679993
-32.341423	-9.065000	962.418457
-31.341423	-9.065000	959.054321
-30.341423	-9.065000	957.255737
-29.341423	-9.065000	961.499390
-28.341423	-9.065000	961.897156
-27.341423	-9.065000	963.296753
-26.341423	-9.065000	966.399658
-25.341423	-9.065000	950.509949
-24.341423	-9.065000	967.907349
-23.341423	-9.065000	965.561157
-22.341423	-9.065000	967.718689
-21.341423	-9.065000	967.741272
-20.341423	-9.065000	967.688843
-19.341423	-9.065000	963.080383
-18.341423	-9.065000	967.524475
-17.341423	-9.065000	963.692505
-16.341423	-9.065000	1100.000000
-15.341423	-9.065000	960.972900
-14.341423	-9.065000	964.386169
-13.341423	-9.065000	960.147461
-12.341423	-9.065000	1100.000000
-11.341423	-9.065000	959.218384
-10.341423	-9.065000	959.475037
-9.341423	-9.065000	964.340698
-8.341423	-9.065000	944.011780
-7.341423	-9.065000	978.513733
-6.341423	-9.065000	985.139221
-5.341423	-9.065000	946.348145
-4.341423	-9.065000	901.567627
-3.341423	-9.065000	999.519104
-2.341423	-9.065000	972.125061
-1.341423	-9.065000	1046.228516
-0.341423	-9.065000	959.540527
0.658577	-9.065000	961.844421
1.658577	-9.065000	965.396912
2.658577	-9.065000	966.074951
3.658577	-9.065000	960.545227
4.658577	-9.065000	931.821289
5.658577	-9.065000	907.829102
6.658577	-9.065000	936.788818
7.658577	-9.065000	901.206604
8.658577	-9.065000	969.786926
9.658577	-9.065000	965.296021
10.658577	-9.065000	968.803955
11.658577	-9.065000	967.877075
12.658577	-9.065000	960.571106
13.658577	-9.065000	956.509033
14.658577	-9.065000	969.325684
15.658577	-9.065000	965.100769
16.658577	-9.065000	976.710327
17.658577	-9.065000	959.677551
18.658577	-9.065000	968.104126
19.658577	-9.065000	1100.000000
20.658577	-9.065000	968.345764
21.658577	-9.065000	972.366333
22.658577	-9.065000	976.647949
23.658577	-9.065000	967.913879
24.658577	-9.065000	968.304626
-39.341423	-8.065000	963.391785
-38.341423	-8.065000	960.681641
-37.341423	-8.065000	957.558044
-36.341423	-8.065000	965.551086
-35.341423	-8.065000	959.410522
-34.341423	-8.065000	958.484253
-33.341423	-8.065000	955.661316
-32.341423	-8.065000	959.609070
-31.341423	-8.065000	963.534241
-30.341423	-8.065000	961.233948
-29.341423	-8.065000	960.620361
-28.341423	-8.065000	955.383057
-27.341423	-8.065000	959.119446
-26.341423	-8.065000	965.362427
-25.341423	-8.065000	962.592224
-24.341423	-8.065000	950.732849
-23.341423	-8.065000	968.340393
-22.341423	-8.065000	968.082825
-21.341423	-8.065000	969.327637
-20.341423	-8.065000	961.037231
-19.341423	-8.065000	969.922546
-18.341423	-8.065000	962.541931
-17.341423	-8.065000	965.830688
-16.341423	-8.065000	962.704773
-15.341423	-8.065000	964.442383
-14.341423	-8.065000	964.970459
-13.341423	-8.065000	962.654968
-12.341423	-8.065000	962.060852
-11.341423	-8.065000	961.936462
-10.341423	-8.065000	964.163269
-9.341423	-8.065000	962.275879
-8.341423	-8.065000	964.821533
-7.341423	-8.065000	966.606812
-6.341423	-8.065000	931.260986
-5.341423	-8.065000	957.228271
-4.341423	-8.065000	1002.508728
-3.341423	-8.065000	972.519104
-2.341423	-8.065000	971.272217
-1.341423	-8.065000	967.751831
-0.341423	-8.065000	970.262878
0.658577	-8.065000	968.671753
1.658577	-8.065000	966.602966
2.658577	-8.065000	967.245728
3.658577	-8.065000	967.673035
4.658577	-8.065000	935.130432
5.658577	-8.065000	927.291565
6.658577	-8.065000	973.340454
7.658577	-8.065000	965.430237
8.658577	-8.065000	967.446777
9.658577	-8.065000	967.534241
10.658577	-8.065000	965.823059
11.658577	-8.065000	967.603271
12.658577	-8.065000	964.778992
13.658577	-8.065000	930.234497
14.658577	-8.065000	921.777893
15.658577	-8.065000	965.547119
16.658577	-8.065000	976.072083
17.658577	-8.065000	986.214783
18.658577	-8.065000	966.877441
19.658577	-8.065000	959.373718
20.658577	-8.065000	964.723938
21.658577	-8.065000	959.567444
22.658577	-8.065000	966.301941
23.658577	-8.065000	965.369507
24.658577	-8.065000	968.381775
-39.341423	-7.065000	957.754883
-38.341423	-7.065000	965.934265
-37.341423	-7.065000	961.423035
-36.341423	-7.065000	962.574524
-35.341423	-7.065000	962.235229
-34.341423	-7.065000	959.935486
-33.341423	-7.065000	962.575195
-32.341423	-7.065000	957.510437
-31.341423	-7.065000	962.086609
-30.341423	-7.065000	960.009155
-29.341423	-7.065000	961.176270
-28.341423	-7.065000	963.525208
-27.341423	-7.065000	962.503662
-26.341423	-7.065000	1095.256592
-25.341423	-7.065000	950.593384
-24.341423	-7.065000	965.269287
-23.341423	-7.065000	964.438843
-22.341423	-7.065000	966.653320
-21.341423	-7.065000	972.664917
-20.341423	-7.065000	971.905273
-19.341423	-7.065000	951.079468
-18.341423	-7.065000	967.952209
-17.341423	-7.065000	959.930115
-16.341423	-7.065000	958.634583
-15.341423	-7.065000	961.437866
-14.341423	-7.065000	965.206726
-13.341423	-7.065000	962.819214
-12.341423	-7.065000	965.804565
-11.341423	-7.065000	959.271057
-10.341423	-7.065000	963.728821
-9.341423	-7.065000	964.383972
-8.341423	-7.065000	964.225037
-7.341423	-7.065000	967.594299
-6.341423	-7.065000	967.825195
-5.341423	-7.065000	968.405701
-4.341423	-7.065000	968.744934
-3.341423	-7.065000	965.219727
-2.341423	-7.065000	967.920471
-1.341423	-7.065000	967.398499
-0.341423	-7.065000	968.422180
0.658577	-7.065000	967.976746
1.658577	-7.065000	968.281067
2.658577	-7.065000	967.876892
3.658577	-7.065000	960.915894
4.658577	-7.065000	977.481018
5.658577	-7.065000	964.255249
6.658577	-7.065000	965.926025
7.658577	-7.065000	966.942993
8.658577	-7.065000	967.365295
9.658577	-7.065000	967.371948
10.658577	-7.065000	967.587830
11.658577	-7.065000	966.178955
12.658577	-7.065000	967.748840
13.658577	-7.065000	964.323669
14.658577	-7.065000	963.568665
15.658577	-7.065000	1100.000000
16.658577	-7.065000	981.376831
17.658577	-7.065000	959.538879
18.658577	-7.065000	966.739197
19.658577	-7.065000	975.869263
20.658577	-7.065000	981.888000
21.658577	-7.065000	968.464478
22.658577	-7.065000	973.515381
23.658577	-7.065000	957.472168
24.658577	-7.065000	962.412476
-39.341423	-6.065000	966.817566
-38.341423	-6.065000	959.794067
-37.341423	-6.065000	960.744812
-36.341423	-6.065000	965.919800
-35.341423	-6.065000	958.148132
-34.341423	-6.065000	963.008850
-33.341423	-6.065000	964.087280
-32.341423	-6.065000	965.746033
-31.341423	-6.065000	962.605286
-30.341423	-6.065000	957.963379
-29.341423	-6.065000	957.453918
-28.341423	-6.065000	964.228333
-27.341423	-6.065000	961.763977
-26.341423	-6.065000	963.267700
-25.341423	-6.065000	962.332153
-24.341423	-6.065000	959.375549
-23.341423	-6.065000	962.086914
-22.341423	-6.065000	966.222595
-21.341423	-6.065000	949.899719
-20.341423	-6.065000	967.271057
-19.341423	-6.065000	967.757935
-18.341423	-6.065000	966.560181
-17.341423	-6.065000	968.432007
-16.341423	-6.065000	959.841858
-15.341423	-6.065000	954.580505
-14.341423	-6.065000	964.411560
-13.341423	-6.065000	962.248779
-12.341423	-6.065000	959.494019
-11.341423	-6.065000	962.997437
-10.341423	-6.065000	959.482544
-9.341423	-6.065000	954.051270
-8.341423	-6.065000	959.873657
-7.341423	-6.065000	985.823486
-6.341423	-6.065000	964.078552
-5.341423	-6.065000	967.128052
-4.341423	-6.065000	966.129150
-3.341423	-6.065000	968.597290
-2.341423	-6.065000	968.798218
-1.341423	-6.065000	967.638550
-0.341423	-6.065000	968.171265
0.658577	-6.065000	966.823975
1.658577	-6.065000	966.420227
2.658577	-6.065000	964.469910
3.658577	-6.065000	1100.000000
4.658577	-6.065000	900.000000
5.658577	-6.065000	962.656433
6.658577	-6.065000	969.300598
7.658577	-6.065000	961.816162
8.658577	-6.065000	965.767761
9.658577	-6.065000	966.705383
10.658577	-6.065000	968.247681
11.658577	-6.065000	961.798523
12.658577	-6.065000	969.080933
13.658577	-6.065000	959.788269
14.658577	-6.065000	961.648376
15.658577	-6.065000	964.899963
16.658577	-6.065000	1008.651550
17.658577	-6.065000	960.877014
18.658577	-6.065000	975.063293
19.658577	-6.065000	1002.790039
20.658577	-6.065000	960.667053
21.658577	-6.065000	960.235474
22.658577	-6.065000	996.116516
23.658577	-6.065000	990.330994
24.658577	-6.065000	958.647522
-39.341423	-5.065000	968.411926
-38.341423	-5.065000	970.532349
-37.341423	-5.065000	965.105042
-36.341423	-5.065000	960.566040
-35.341423	-5.065000	963.777588
-34.341423	-5.065000	958.914978
-33.341423	-5.065000	959.904297
-32.341423	-5.065000	957.493835
-31.341423	-5.065000	964.948120
-30.341423	-5.065000	951.475830
-29.341423	-5.065000	961.169067
-28.341423	-5.065000	963.530090
-27.341423	-5.065000	964.962097
-26.341423	-5.065000	900.000000
-25.341423	-5.065000	1100.000000
-24.341423	-5.065000	1100.000000
-23.341423	-5.065000	964.935364
-22.341423	-5.065000	900.000000
-21.341423	-5.065000	963.557861
-20.341423	-5.065000	968.046753
-19.341423	-5.065000	967.660889
-18.341423	-5.065000	967.844604
-17.341423	-5.065000	969.530273
-16.341423	-5.065000	976.258484
-15.341423	-5.065000	964.459900
-14.341423	-5.065000	966.069458
-13.341423	-5.065000	959.787720
-12.341423	-5.065000	962.219666
-11.341423	-5.065000	964.993164
-10.341423	-5.065000	964.635681
-9.341423	-5.065000	960.975525
-8.341423	-5.065000	1100.000000
-7.341423	-5.065000	958.441528
-6.341423	-5.065000	961.663818
-5.341423	-5.065000	966.464722
-4.341423	-5.065000	966.643555
-3.341423	-5.065000	966.348328
-2.341423	-5.065000	968.655090
-1.341423	-5.065000	966.743408
-0.341423	-5.065000	968.213074
0.658577	-5.065000	966.822937
1.658577	-5.065000	965.627747
2.658577	-5.065000	968.022156
3.658577	-5.065000	966.469116
4.658577	-5.065000	973.431335
5.658577	-5.065000	965.329834
6.658577	-5.065000	971.071411
7.658577	-5.065000	969.802795
8.658577	-5.065000	968.208374
9.658577	-5.065000	966.692261
10.658577	-5.065000	965.023438
11.658577	-5.065000	962.170044
12.658577	-5.065000	957.701477
13.658577	-5.065000	964.471313
14.658577	-5.065000	966.755432
15.658577	-5.065000	1033.622437
16.658577	-5.065000	900.000000
17.658577	-5.065000	960.472961
18.658577	-5.065000	973.425354
19.658577	-5.065000	959.087769
20.658577	-5.065000	961.390991
21.658577	-5.065000	981.300781
22.658577	-5.065000	964.592773
23.658577	-5.065000	931.268616
24.658577	-5.065000	963.113770
-39.341423	-4.065000	965.696228
-38.341423	-4.065000	969.544800
-37.341423	-4.065000	969.068848
-36.341423	-4.065000	944.758789
-35.341423	-4.065000	962.147278
-34.341423	-4.065000	964.737427
-33.341423	-4.065000	900.000000
-32.341423	-4.065000	966.004639
-31.341423	-4.065000	962.867981
-30.341423	-4.065000	960.524353
-29.341423	-4.065000	967.804199
-28.341423	-4.065000	964.402771
-27.341423	-4.065000	965.488098
-26.341423	-4.065000	962.731567
-25.341423	-4.065000	1100.000000
-24.341423	-4.065000	966.754395
-23.341423	-4.065000	964.212585
-22.341423	-4.065000	950.571228
-21.341423	-4.065000	900.000000
-20.341423	-4.065000	967.892090
-19.341423	-4.065000	972.254272
-18.341423	-4.065000	967.221436
-17.341423	-4.065000	968.706604
-16.341423	-4.065000	966.749939
-15.341423	-4.065000	900.000000
-14.341423	-4.065000	959.650696
-13.341423	-4.065000	961.735779
-12.341423	-4.065000	960.389832
-11.341423	-4.065000	959.991821
-10.341423	-4.065000	964.974121
-9.341423	-4.065000	953.771912
-8.341423	-4.065000	960.032837
-7.341423	-4.065000	963.596436
-6.341423	-4.065000	963.329773
-5.341423	-4.065000	907.624817
-4.341423	-4.065000	967.060730
-3.341423	-4.065000	968.181030
-2.341423	-4.065000	966.407715
-1.341423	-4.065000	965.903137
-0.341423	-4.065000	959.858276
0.658577	-4.065000	965.304871
1.658577	-4.065000	966.497070
2.658577	-4.065000	968.932373
3.658577	-4.065000	967.786865
4.658577	-4.065000	966.165039
5.658577	-4.065000	964.733154
6.658577	-4.065000	970.807861
7.658577	-4.065000	966.941345
8.658577	-4.065000	964.591492
9.658577	-4.065000	966.664185
10.658577	-4.065000	930.369507
11.658577	-4.065000	970.055847
12.658577	-4.065000	962.966675
13.658577	-4.065000	963.177795
14.658577	-4.065000	1100.000000
15.658577	-4.065000	965.832642
16.658577	-4.065000	965.455322
17.658577	-4.065000	1100.000000
18.658577	-4.065000	1033.186035
19.658577	-4.065000	972.259033
20.658577	-4.065000	965.210449
21.658577	-4.065000	951.390564
22.658577	-4.065000	965.034058
23.658577	-4.065000	962.213806
24.658577	-4.065000	943.144226
-39.341423	-3.065000	966.567993
-38.341423	-3.065000	967.216980
-37.341423	-3.065000	976.133850
-36.341423	-3.065000	938.216003
-35.341423	-3.065000	947.340698
-34.341423	-3.065000	960.443115
-33.341423	-3.065000	967.501404
-32.341423	-3.065000	969.361755
-31.341423	-3.065000	965.585510
-30.341423	-3.065000	957.801453
-29.341423	-3.065000	968.307983
-28.341423	-3.065000	965.418884
-27.341423	-3.065000	964.400574
-26.341423	-3.065000	964.028381
-25.341423	-3.065000	971.200195
-24.341423	-3.065000	959.779663
-23.341423	-3.065000	967.386047
-22.341423	-3.065000	962.225708
-21.341423	-3.065000	966.802673
-20.341423	-3.065000	966.624268
-19.341423	-3.065000	969.100891
-18.341423	-3.065000	955.773132
-17.341423	-3.065000	962.181641
-16.341423	-3.065000	963.532471
-15.341423	-3.065000	954.207703
-14.341423	-3.065000	964.038818
-13.341423	-3.065000	961.742310
-12.341423	-3.065000	962.966187
-11.341423	-3.065000	964.127563
-10.341423	-3.065000	961.300720
-9.341423	-3.065000	963.752136
-8.341423	-3.065000	962.126099
-7.341423	-3.065000	964.989502
-6.341423	-3.065000	963.308044
-5.341423	-3.065000	960.748230
-4.341423	-3.065000	974.707947
-3.341423	-3.065000	965.921814
-2.341423	-3.065000	959.032715
-1.341423	-3.065000	957.241516
-0.341423	-3.065000	974.466797
0.658577	-3.065000	963.108948
1.658577	-3.065000	967.192383
2.658577	-3.065000	967.347839
3.658577	-3.065000	967.166992
4.658577	-3.065000	967.269104
5.658577	-3.065000	963.750122
6.658577	-3.065000	959.938660
7.658577	-3.065000	959.761108
8.658577	-3.065000	959.593811
9.658577	-3.065000	970.612000
10.658577	-3.065000	966.874939
11.658577	-3.065000	964.937927
12.658577	-3.065000	964.520935
13.658577	-3.065000	959.829956
14.658577	-3.065000	968.358765
15.658577	-3.065000	956.182678
16.658577	-3.065000	1100.000000
17.658577	-3.065000	903.314453
18.658577	-3.065000	962.784729
19.658577	-3.065000	963.238586
20.658577	-3.065000	964.986572
21.658577	-3.065000	966.491943
22.658577	-3.065000	967.103088
23.658577	-3.065000	962.999695
24.658577	-3.065000	1100.000000
-39.341423	-2.065000	967.067749
-38.341423	-2.065000	969.346741
-37.341423	-2.065000	902.769104
-36.341423	-2.065000	970.171753
-35.341423	-2.065000	967.244690
-34.341423	-2.065000	963.455505
-33.341423	-2.065000	967.483826
-32.341423	-2.065000	966.432129
-31.341423	-2.065000	964.828918
-30.341423	-2.065000	987.402954
-29.341423	-2.065000	967.979431
-28.341423	-2.065000	968.609802
-27.341423	-2.065000	966.616516
-26.341423	-2.065000	961.726013
-25.341423	-2.065000	960.470032
-24.341423	-2.065000	968.717224
-23.341423	-2.065000	963.930908
-22.341423	-2.065000	988.638733
-21.341423	-2.065000	965.795776
-20.341423	-2.065000	969.144226
-19.341423	-2.065000	967.207336
-18.341423	-2.065000	965.203125
-17.341423	-2.065000	968.500671
-16.341423	-2.065000	965.870361
-15.341423	-2.065000	961.805176
-14.341423	-2.065000	957.334412
-13.341423	-2.065000	960.236389
-12.341423	-2.065000	962.845154
-11.341423	-2.065000	967.237305
-10.341423	-2.065000	958.975769
-9.341423	-2.065000	962.068970
-8.341423	-2.065000	962.068970
-7.341423	-2.065000	964.836121
-6.341423	-2.065000	962.647644
-5.341423	-2.065000	961.645386
-4.341423	-2.065000	1100.000000
-3.341423	-2.065000	978.922119
-2.341423	-2.065000	963.430298
-1.341423	-2.065000	963.360962
-0.341423	-2.065000	961.396423
0.658577	-2.065000	960.022034
1.658577	-2.065000	954.474609
2.658577	-2.065000	968.922363
3.658577	-2.065000	967.330200
4.658577	-2.065000	967.649170
5.658577	-2.065000	969.999146
6.658577	-2.065000	962.411194
7.658577	-2.065000	981.456848
8.658577	-2.065000	982.935120
9.658577	-2.065000	964.461365
10.658577	-2.065000	973.125244
11.658577	-2.065000	966.085571
12.658577	-2.065000	967.214539
13.658577	-2.065000	960.341858
14.658577	-2.065000	959.027466
15.658577	-2.065000	965.196716
16.658577	-2.065000	961.439148
17.658577	-2.065000	961.691345
18.658577	-2.065000	945.921082
19.658577	-2.065000	974.106934
20.658577	-2.065000	954.810242
21.658577	-2.065000	965.129211
22.658577	-2.065000	968.093567
23.658577	-2.065000	969.670593
24.658577	-2.065000	979.561401
-39.341423	-1.065000	966.970459
-38.341423	-1.065000	965.808533
-37.341423	-1.065000	971.443542
-36.341423	-1.065000	971.184631
-35.341423	-1.065000	972.989441
-34.341423	-1.065000	920.629150
-33.341423	-1.065000	900.016418
-32.341423	-1.065000	991.822998
-31.341423	-1.065000	955.958679
-30.341423	-1.065000	968.547852
-29.341423	-1.065000	967.970215
-28.341423	-1.065000	968.506836
-27.341423	-1.065000	963.644714
-26.341423	-1.065000	964.392212
-25.341423	-1.065000	965.159485
-24.341423	-1.065000	962.848206
-23.341423	-1.065000	961.836853
-22.341423	-1.065000	943.776367
-21.341423	-1.065000	965.156372
-20.341423	-1.065000	966.939392
-19.341423	-1.065000	965.227600
-18.341423	-1.065000	967.718384
-17.341423	-1.065000	900.000000
-16.341423	-1.065000	968.377258
-15.341423	-1.065000	962.116455
-14.341423	-1.065000	961.433838
-13.341423	-1.065000	963.114563
-12.341423	-1.065000	961.188049
-11.341423	-1.065000	959.994385
-10.341423	-1.065000	961.641846
-9.341423	-1.065000	961.864075
-8.341423	-1.065000	964.200867
-7.341423	-1.065000	962.864380
-6.341423	-1.065000	962.285645
-5.341423	-1.065000	960.744690
-4.341423	-1.065000	963.641479
-3.341423	-1.065000	955.912842
-2.341423	-1.065000	966.556396
-1.341423	-1.065000	959.369263
-0.341423	-1.065000	968.125793
0.658577	-1.065000	959.696594
1.658577	-1.065000	962.076538
2.658577	-1.065000	971.813171
3.658577	-1.065000	966.840454
4.658577	-1.065000	959.177307
5.658577	-1.065000	967.254333
6.658577	-1.065000	966.943359
7.658577	-1.065000	964.171143
8.658577	-1.065000	967.728821
9.658577	-1.065000	973.078857
10.658577	-1.065000	962.339050
11.658577	-1.065000	972.281677
12.658577	-1.065000	961.261841
13.658577	-1.065000	964.501343
14.658577	-1.065000	991.957214
15.658577	-1.065000	964.445740
16.658577	-1.065000	962.548279
17.658577	-1.065000	961.703247
18.658577	-1.065000	965.560364
19.658577	-1.065000	955.517883
20.658577	-1.065000	967.394348
21.658577	-1.065000	967.630554
22.658577	-1.065000	967.570618
23.658577	-1.065000	975.338074
24.658577	-1.065000	964.537415
-39.341423	-0.065000	900.000000
-38.341423	-0.065000	951.996765
-37.341423	-0.065000	966.427063
-36.341423	-0.065000	961.665833
-35.341423	-0.065000	970.832642
-34.341423	-0.065000	963.914490
-33.341423	-0.065000	966.794800
-32.341423	-0.065000	943.264954
-31.341423	-0.065000	900.000488
-30.341423	-0.065000	966.514343
-29.341423	-0.065000	968.293884
-28.341423	-0.065000	968.250916
-27.341423	-0.065000	967.832031
-26.341423	-0.065000	965.912781
-25.341423	-0.065000	900.000000
-24.341423	-0.065000	965.023987
-23.341423	-0.065000	1100.000000
-22.341423	-0.065000	967.383728
-21.341423	-0.065000	965.981018
-20.341423	-0.065000	966.332092
-19.341423	-0.065000	971.555420
-18.341423	-0.065000	969.612854
-17.341423	-0.065000	965.288513
-16.341423	-0.065000	949.123474
-15.341423	-0.065000	968.139587
-14.341423	-0.065000	961.936157
-13.341423	-0.065000	960.397583
-12.341423	-0.065000	961.189270
-11.341423	-0.065000	962.342590
-10.341423	-0.065000	958.926025
-9.341423	-0.065000	962.865173
-8.341423	-0.065000	964.023438
-7.341423	-0.065000	963.291321
-6.341423	-0.065000	961.642151
-5.341423	-0.065000	982.593140
-4.341423	-0.065000	958.135132
-3.341423	-0.065000	964.442200
-2.341423	-0.065000	980.262695
-1.341423	-0.065000	962.987915
-0.341423	-0.065000	960.605896
0.658577	-0.065000	966.989990
1.658577	-0.065000	960.829102
2.658577	-0.065000	969.433044
3.658577	-0.065000	1076.447021
4.658577	-0.065000	901.938721
5.658577	-0.065000	963.697876
6.658577	-0.065000	964.537292
7.658577	-0.065000	965.093933
8.658577	-0.065000	956.112549
9.658577	-0.065000	924.847961
10.658577	-0.065000	960.549805
11.658577	-0.065000	961.922363
12.658577	-0.065000	960.940063
13.658577	-0.065000	965.822815
14.658577	-0.065000	900.000000
15.658577	-0.065000	962.846069
16.658577	-0.065000	962.861877
17.658577	-0.065000	963.447693
18.658577	-0.065000	967.416992
19.658577	-0.065000	964.882690
20.658577	-0.065000	963.951904
21.658577	-0.065000	968.689331
22.658577	-0.065000	967.870972
23.658577	-0.065000	967.783508
24.658577	-0.065000	962.513611
-39.341423	0.935000	980.972656
-38.341423	0.935000	900.000000
-37.341423	0.935000	980.270081
-36.341423	0.935000	972.747253
-35.341423	0.935000	965.143372
-34.341423	0.935000	964.453369
-33.341423	0.935000	962.987610
-32.341423	0.935000	965.233093
-31.341423	0.935000	900.000000
-30.341423	0.935000	970.070923
-29.341423	0.935000	967.884949
-28.341423	0.935000	968.324585
-27.341423	0.935000	966.975342
-26.341423	0.935000	968.712158
-25.341423	0.935000	965.013794
-24.341423	0.935000	965.926575
-23.341423	0.935000	960.111450
-22.341423	0.935000	958.526489
-21.341423	0.935000	953.158203
-20.341423	0.935000	965.256958
-19.341423	0.935000	961.674194
-18.341423	0.935000	962.200195
-17.341423	0.935000	959.007202
-16.341423	0.935000	971.599854
-15.341423	0.935000	965.151367
-14.341423	0.935000	959.344238
-13.341423	0.935000	960.420532
-12.341423	0.935000	961.418213
-11.341423	0.935000	963.081177
-10.341423	0.935000	956.745422
-9.341423	0.935000	959.930603
-8.341423	0.935000	963.122864
-7.341423	0.935000	966.435608
-6.341423	0.935000	962.887695
-5.341423	0.935000	961.360779
-4.341423	0.935000	963.846130
-3.341423	0.935000	968.975952
-2.341423	0.935000	961.782288
-1.341423	0.935000	960.851746
-0.341423	0.935000	1100.000000
0.658577	0.935000	986.034424
1.658577	0.935000	967.982544
2.658577	0.935000	974.429077
3.658577	0.935000	937.943604
4.658577	0.935000	959.622253
5.658577	0.935000	961.725891
6.658577	0.935000	963.156311
7.658577	0.935000	962.922424
8.658577	0.935000	969.365906
9.658577	0.935000	936.697510
10.658577	0.935000	956.965210
11.658577	0.935000	964.784973
12.658577	0.935000	964.153137
13.658577	0.935000	962.971313
14.658577	0.935000	961.717224
15.658577	0.935000	968.572266
16.658577	0.935000	966.227783
17.658577	0.935000	967.549438
18.658577	0.935000	967.647705
19.658577	0.935000	972.276428
20.658577	0.935000	1100.000000
21.658577	0.935000	961.052124
22.658577	0.935000	969.486206
23.658577	0.935000	965.051147
24.658577	0.935000	943.201599
-39.341423	1.935000	1007.085083
-38.341423	1.935000	938.855835
-37.341423	1.935000	933.337158
-36.341423	1.935000	966.619080
-35.341423	1.935000	964.669739
-34.341423	1.935000	900.000000
-33.341423	1.935000	956.604675
-32.341423	1.935000	910.677917
-31.341423	1.935000	963.758484
-30.341423	1.935000	972.585693
-29.341423	1.935000	966.956970
-28.341423	1.935000	965.842529
-27.341423	1.935000	966.343567
-26.341423	1.935000	900.000000
-25.341423	1.935000	963.681885
-24.341423	1.935000	966.589417
-23.341423	1.935000	965.339111
-22.341423	1.935000	962.244324
-21.341423	1.935000	961.044800
-20.341423	1.935000	963.310364
-19.341423	1.935000	966.299805
-18.341423	1.935000	968.069031
-17.341423	1.935000	968.093933
-16.341423	1.935000	968.315552
-15.341423	1.935000	964.823669
-14.341423	1.935000	956.526245
-13.341423	1.935000	960.590393
-12.341423	1.935000	959.681824
-11.341423	1.935000	964.587097
-10.341423	1.935000	962.325439
-9.341423	1.935000	964.134583
-8.341423	1.935000	962.100708
-7.341423	1.935000	959.352966
-6.341423	1.935000	960.255310
-5.341423	1.935000	958.624146
-4.341423	1.935000	960.567139
-3.341423	1.935000	961.992493
-2.341423	1.935000	962.737061
-1.341423	1.935000	960.142822
-0.341423	1.935000	968.890869
0.658577	1.935000	967.899597
1.658577	1.935000	965.529846
2.658577	1.935000	972.902222
3.658577	1.935000	900.000000
4.658577	1.935000	1063.968140
5.658577	1.935000	960.695923
6.658577	1.935000	967.995300
7.658577	1.935000	963.545532
8.658577	1.935000	968.158569
9.658577	1.935000	961.035461
10.658577	1.935000	964.190613
11.658577	1.935000	960.761658
12.658577	1.935000	962.153564
13.658577	1.935000	962.425354
14.658577	1.935000	962.113464
15.658577	1.935000	967.186035
16.658577	1.935000	971.294922
17.658577	1.935000	961.636475
18.658577	1.935000	965.940979
19.658577	1.935000	965.172302
20.658577	1.935000	1100.000000
21.658577	1.935000	963.625977
22.658577	1.935000	966.404175
23.658577	1.935000	963.416138
24.658577	1.935000	964.903870
-39.341423	2.935000	964.369019
-38.341423	2.935000	963.306091
-37.341423	2.935000	956.335938
-36.341423	2.935000	968.425659
-35.341423	2.935000	969.105225
-34.341423	2.935000	969.138062
-33.341423	2.935000	982.233948
-32.341423	2.935000	957.587463
-31.341423	2.935000	976.299805
-30.341423	2.935000	976.109497
-29.341423	2.935000	920.553467
-28.341423	2.935000	938.222046
-27.341423	2.935000	951.951904
-26.341423	2.935000	1100.000000
-25.341423	2.935000	962.548645
-24.341423	2.935000	964.087097
-23.341423	2.935000	966.691345
-22.341423	2.935000	963.180725
-21.341423	2.935000	965.412170
-20.341423	2.935000	951.955750
-19.341423	2.935000	966.882874
-18.341423	2.935000	967.428345
-17.341423	2.935000	966.537659
-16.341423	2.935000	968.306946
-15.341423	2.935000	968.122009
-14.341423	2.935000	968.527954
-13.341423	2.935000	963.835815
-12.341423	2.935000	961.732483
-11.341423	2.935000	900.000000
-10.341423	2.935000	917.219238
-9.341423	2.935000	909.205627
-8.341423	2.935000	962.204651
-7.341423	2.935000	961.799805
-6.341423	2.935000	962.104858
-5.341423	2.935000	962.597290
-4.341423	2.935000	962.888916
-3.341423	2.935000	900.000000
-2.341423	2.935000	938.995728
-1.341423	2.935000	964.529053
-0.341423	2.935000	965.189941
0.658577	2.935000	959.905273
1.658577	2.935000	965.011719
2.658577	2.935000	947.600464
3.658577	2.935000	967.342224
4.658577	2.935000	965.931335
5.658577	2.935000	935.236816
6.658577	2.935000	966.256592
7.658577	2.935000	967.634460
8.658577	2.935000	952.276306
9.658577	2.935000	962.665283
10.658577	2.935000	960.261047
11.658577	2.935000	965.710266
12.658577	2.935000	962.243530
13.658577	2.935000	962.662964
14.658577	2.935000	963.503601
15.658577	2.935000	905.099365
16.658577	2.935000	966.805115
17.658577	2.935000	964.079041
18.658577	2.935000	966.119934
19.658577	2.935000	969.625061
20.658577	2.935000	962.681702
21.658577	2.935000	969.415344
22.658577	2.935000	961.991150
23.658577	2.935000	966.434631
24.658577	2.935000	965.588623
-39.341423	3.935000	961.527771
-38.341423	3.935000	978.656006
-37.341423	3.935000	956.413391
-36.341423	3.935000	934.087708
-35.341423	3.935000	928.889709
-34.341423	3.935000	967.136353
-33.341423	3.935000	907.581360
-32.341423	3.935000	968.007446
-31.341423	3.935000	982.957092
-30.341423	3.935000	962.099365
-29.341423	3.935000	947.535950
-28.341423	3.935000	964.632324
-27.341423	3.935000	960.821472
-26.341423	3.935000	963.044983
-25.341423	3.935000	961.971069
-24.341423	3.935000	966.670837
-23.341423	3.935000	963.080505
-22.341423	3.935000	961.344849
-21.341423	3.935000	960.536987
-20.341423	3.935000	975.867310
-19.341423	3.935000	965.261902
-18.341423	3.935000	986.698792
-17.341423	3.935000	956.753113
-16.341423	3.935000	967.302673
-15.341423	3.935000	967.766541
-14.341423	3.935000	966.703674
-13.341423	3.935000	965.594604
-12.341423	3.935000	964.419312
-11.341423	3.935000	961.637756
-10.341423	3.935000	962.015686
-9.341423	3.935000	1048.065308
-8.341423	3.935000	979.669495
-7.341423	3.935000	900.000000
-6.341423	3.935000	969.506775
-5.341423	3.935000	1096.053467
-4.341423	3.935000	969.245667
-3.341423	3.935000	960.402832
-2.341423	3.935000	962.133911
-1.341423	3.935000	1090.147217
-0.341423	3.935000	965.153992
0.658577	3.935000	959.640259
1.658577	3.935000	960.425232
2.658577	3.935000	977.474487
3.658577	3.935000	965.853699
4.658577	3.935000	1024.266479
5.658577	3.935000	963.422180
6.658577	3.935000	964.986450
7.658577	3.935000	902.359863
8.658577	3.935000	960.505981
9.658577	3.935000	959.608459
10.658577	3.935000	997.584961
11.658577	3.935000	963.202576
12.658577	3.935000	964.114929
13.658577	3.935000	956.372375
14.658577	3.935000	960.255249
15.658577	3.935000	962.653564
16.658577	3.935000	964.928162
17.658577	3.935000	964.078369
18.658577	3.935000	961.215637
19.658577	3.935000	962.905334
20.658577	3.935000	900.000000
21.658577	3.935000	1100.000000
22.658577	3.935000	965.577271
23.658577	3.935000	966.347595
24.658577	3.935000	966.787109
-39.341423	4.935000	955.519653
-38.341423	4.935000	959.526978
-37.341423	4.935000	957.377258
-36.341423	4.935000	987.239624
-35.341423	4.935000	959.239563
-34.341423	4.935000	956.873657
-33.341423	4.935000	963.845154
-32.341423	4.935000	962.285889
-31.341423	4.935000	943.927795
-30.341423	4.935000	963.535034
-29.341423	4.935000	976.063721
-28.341423	4.935000	965.903503
-27.341423	4.935000	962.338928
-26.341423	4.935000	952.839050
-25.341423	4.935000	960.653870
-24.341423	4.935000	964.594299
-23.341423	4.935000	963.437012
-22.341423	4.935000	960.718811
-21.341423	4.935000	963.421143
-20.341423	4.935000	944.037842
-19.341423	4.935000	967.882202
-18.341423	4.935000	962.026672
-17.341423	4.935000	958.423889
-16.341423	4.935000	965.409973
-15.341423	4.935000	977.197937
-14.341423	4.935000	965.792297
-13.341423	4.935000	968.380066
-12.341423	4.935000	965.181763
-11.341423	4.935000	900.225342
-10.341423	4.935000	962.658386
-9.341423	4.935000	960.408936
-8.341423	4.935000	962.539185
-7.341423	4.935000	965.333069
-6.341423	4.935000	966.245056
-5.341423	4.935000	967.627991
-4.341423	4.935000	967.437378
-3.341423	4.935000	960.734497
-2.341423	4.935000	969.329651
-1.341423	4.935000	963.048279
-0.341423	4.935000	965.966125
0.658577	4.935000	963.463928
1.658577	4.935000	941.728821
2.658577	4.935000	967.966492
3.658577	4.935000	945.909790
4.658577	4.935000	963.776611
5.658577	4.935000	965.081482
6.658577	4.935000	963.966248
7.658577	4.935000	964.855835
8.658577	4.935000	960.152649
9.658577	4.935000	959.516296
10.658577	4.935000	959.835938
11.658577	4.935000	951.334045
12.658577	4.935000	964.350403
13.658577	4.935000	966.863220
14.658577	4.935000	965.290588
15.658577	4.935000	965.762329
16.658577	4.935000	961.063599
17.658577	4.935000	969.862976
18.658577	4.935000	966.245972
19.658577	4.935000	961.346497
20.658577	4.935000	961.624268
21.658577	4.935000	1100.000000
22.658577	4.935000	960.205872
23.658577	4.935000	964.561951
24.658577	4.935000	967.528442
-39.341423	5.935000	950.915405
-38.341423	5.935000	958.423035
-37.341423	5.935000	964.346375
-36.341423	5.935000	956.463867
-35.341423	5.935000	958.722595
-34.341423	5.935000	963.353699
-33.341423	5.935000	963.486328
-32.341423	5.935000	964.585815
-31.341423	5.935000	966.545105
-30.341423	5.935000	966.625244
-29.341423	5.935000	967.896912
-28.341423	5.935000	967.953857
-27.341423	5.935000	966.800110
-26.341423	5.935000	966.127563
-25.341423	5.935000	960.977966
-24.341423	5.935000	959.095398
-23.341423	5.935000	963.149902
-22.341423	5.935000	963.650757
-21.341423	5.935000	966.446472
-20.341423	5.935000	962.523254
-19.341423	5.935000	959.134155
-18.341423	5.935000	963.076050
-17.341423	5.935000	961.627808
-16.341423	5.935000	963.769043
-15.341423	5.935000	958.290894
-14.341423	5.935000	960.141357
-13.341423	5.935000	968.832153
-12.341423	5.935000	964.777283
-11.341423	5.935000	962.009888
-10.341423	5.935000	959.684509
-9.341423	5.935000	960.828430
-8.341423	5.935000	958.595825
-7.341423	5.935000	966.646729
-6.341423	5.935000	1100.000000
-5.341423	5.935000	967.684937
-4.341423	5.935000	967.931274
-3.341423	5.935000	900.000000
-2.341423	5.935000	964.809143
-1.341423	5.935000	1100.000000
-0.341423	5.935000	1100.000000
0.658577	5.935000	963.441162
1.658577	5.935000	963.724792
2.658577	5.935000	977.660156
3.658577	5.935000	962.533813
4.658577	5.935000	965.337769
5.658577	5.935000	958.320801
6.658577	5.935000	961.211182
7.658577	5.935000	946.248596
8.658577	5.935000	964.778748
9.658577	5.935000	961.401733
10.658577	5.935000	959.354614
11.658577	5.935000	962.474365
12.658577	5.935000	962.689087
13.658577	5.935000	962.208801
14.658577	5.935000	962.362549
15.658577	5.935000	965.121826
16.658577	5.935000	964.168518
17.658577	5.935000	962.528259
18.658577	5.935000	962.354797
19.658577	5.935000	960.200378
20.658577	5.935000	973.905090
21.658577	5.935000	962.556335
22.658577	5.935000	958.623413
23.658577	5.935000	965.852356
24.658577	5.935000	966.242737
-39.341423	6.935000	953.826782
-38.341423	6.935000	954.506470
-37.341423	6.935000	954.441772
-36.341423	6.935000	957.432312
-35.341423	6.935000	958.361633
-34.341423	6.935000	960.781250
-33.341423	6.935000	960.229980
-32.341423	6.935000	959.975098
-31.341423	6.935000	966.247070
-30.341423	6.935000	967.649597
-29.341423	6.935000	954.592773
-28.341423	6.935000	966.267090
-27.341423	6.935000	965.273499
-26.341423	6.935000	968.491882
-25.341423	6.935000	965.159058
-24.341423	6.935000	959.122559
-23.341423	6.935000	960.012817
-22.341423	6.935000	1100.000000
-21.341423	6.935000	970.377136
-20.341423	6.935000	960.092712
-19.341423	6.935000	962.456848
-18.341423	6.935000	900.000000
-17.341423	6.935000	964.132629
-16.341423	6.935000	1100.000000
-15.341423	6.935000	966.707886
-14.341423	6.935000	962.533630
-13.341423	6.935000	962.534851
-12.341423	6.935000	967.497986
-11.341423	6.935000	967.932190
-10.341423	6.935000	988.900574
-9.341423	6.935000	956.001038
-8.341423	6.935000	990.301208
-7.341423	6.935000	974.861633
-6.341423	6.935000	961.687805
-5.341423	6.935000	966.134399
-4.341423	6.935000	967.000427
-3.341423	6.935000	900.000000
-2.341423	6.935000	979.860840
-1.341423	6.935000	962.273804
-0.341423	6.935000	967.408508
0.658577	6.935000	963.180847
1.658577	6.935000	1100.000000
2.658577	6.935000	975.634277
3.658577	6.935000	965.617004
4.658577	6.935000	965.175171
5.658577	6.935000	961.246826
6.658577	6.935000	937.032959
7.658577	6.935000	964.030640
8.658577	6.935000	962.042480
9.658577	6.935000	964.532776
10.658577	6.935000	962.998840
11.658577	6.935000	968.097839
12.658577	6.935000	962.964478
13.658577	6.935000	965.246460
14.658577	6.935000	967.725708
15.658577	6.935000	959.173828
16.658577	6.935000	966.438965
17.658577	6.935000	963.923096
18.658577	6.935000	900.000000
19.658577	6.935000	918.080078
20.658577	6.935000	962.839111
21.658577	6.935000	962.965515
22.658577	6.935000	960.118530
23.658577	6.935000	965.162659
24.658577	6.935000	962.893799
-39.341423	7.935000	960.974915
-38.341423	7.935000	960.219116
-37.341423	7.935000	962.202576
-36.341423	7.935000	959.971497
-35.341423	7.935000	958.642639
-34.341423	7.935000	959.976868
-33.341423	7.935000	958.949646
-32.341423	7.935000	965.070313
-31.341423	7.935000	964.422119
-30.341423	7.935000	956.198364
-29.341423	7.935000	1100.000000
-28.341423	7.935000	967.486633
-27.341423	7.935000	1100.000000
-26.341423	7.935000	949.633911
-25.341423	7.935000	962.179138
-24.341423	7.935000	958.902466
-23.341423	7.935000	969.871460
-22.341423	7.935000	963.819519
-21.341423	7.935000	963.629272
-20.341423	7.935000	965.926147
-19.341423	7.935000	949.448486
-18.341423	7.935000	965.106628
-17.341423	7.935000	966.366577
-16.341423	7.935000	959.650085
-15.341423	7.935000	957.939453
-14.341423	7.935000	962.005493
-13.341423	7.935000	964.956665
-12.341423	7.935000	963.216736
-11.341423	7.935000	967.256287
-10.341423	7.935000	965.794922
-9.341423	7.935000	966.941284
-8.341423	7.935000	1100.000000
-7.341423	7.935000	967.117249
-6.341423	7.935000	951.915894
-5.341423	7.935000	960.589905
-4.341423	7.935000	964.385193
-3.341423	7.935000	973.261292
-2.341423	7.935000	1100.000000
-1.341423	7.935000	965.639038
-0.341423	7.935000	962.068115
0.658577	7.935000	965.570374
1.658577	7.935000	963.979858
2.658577	7.935000	957.841431
3.658577	7.935000	961.982056
4.658577	7.935000	968.954651
5.658577	7.935000	974.496643
6.658577	7.935000	946.986877
7.658577	7.935000	969.511475
8.658577	7.935000	991.497864
9.658577	7.935000	961.883606
10.658577	7.935000	964.912537
11.658577	7.935000	961.724182
12.658577	7.935000	959.218201
13.658577	7.935000	967.542603
14.658577	7.935000	966.457764
15.658577	7.935000	963.805359
16.658577	7.935000	961.451660
17.658577	7.935000	972.371887
18.658577	7.935000	964.617493
19.658577	7.935000	968.750977
20.658577	7.935000	968.482178
21.658577	7.935000	960.902710
22.658577	7.935000	1093.382080
23.658577	7.935000	937.647705
24.658577	7.935000	961.234619
-39.341423	8.935000	957.560791
-38.341423	8.935000	961.703369
-37.341423	8.935000	959.269958
-36.341423	8.935000	961.463745
-35.341423	8.935000	960.501892
-34.341423	8.935000	962.249451
-33.341423	8.935000	958.451111
-32.341423	8.935000	960.720459
-31.341423	8.935000	961.677063
-30.341423	8.935000	962.792603
-29.341423	8.935000	900.000000
-28.341423	8.935000	900.000000
-27.341423	8.935000	966.573364
-26.341423	8.935000	984.018860
-25.341423	8.935000	969.508545
-24.341423	8.935000	966.633179
-23.341423	8.935000	972.776489
-22.341423	8.935000	962.249878
-21.341423	8.935000	969.075684
-20.341423	8.935000	965.749817
-19.341423	8.935000	969.631775
-18.341423	8.935000	904.155273
-17.341423	8.935000	957.768494
-16.341423	8.935000	964.912720
-15.341423	8.935000	959.103638
-14.341423	8.935000	965.352234
-13.341423	8.935000	962.941223
-12.341423	8.935000	962.239990
-11.341423	8.935000	971.743469
-10.341423	8.935000	971.331787
-9.341423	8.935000	974.513428
-8.341423	8.935000	945.062134
-7.341423	8.935000	971.238403
-6.341423	8.935000	976.224548
-5.341423	8.935000	966.652710
-4.341423	8.935000	970.145081
-3.341423	8.935000	965.403381
-2.341423	8.935000	968.720276
-1.341423	8.935000	960.091980
-0.341423	8.935000	957.318604
0.658577	8.935000	969.867249
1.658577	8.935000	963.262268
2.658577	8.935000	980.973572
3.658577	8.935000	948.578796
4.658577	8.935000	980.777466
5.658577	8.935000	956.280090
6.658577	8.935000	980.911011
7.658577	8.935000	968.518494
8.658577	8.935000	966.020264
9.658577	8.935000	938.053040
10.658577	8.935000	952.928650
11.658577	8.935000	971.039429
12.658577	8.935000	975.105225
13.658577	8.935000	966.236328
14.658577	8.935000	967.497742
15.658577	8.935000	966.441162
16.658577	8.935000	965.953125
17.658577	8.935000	995.522827
18.658577	8.935000	968.475464
19.658577	8.935000	967.655457
20.658577	8.935000	969.227966
21.658577	8.935000	966.312988
22.658577	8.935000	967.552185
23.658577	8.935000	965.672729
24.658577	8.935000	967.710754
-39.341423	9.935000	957.229675
-38.341423	9.935000	959.915833
-37.341423	9.935000	961.442688
-36.341423	9.935000	958.028503
-35.341423	9.935000	954.882446
-34.341423	9.935000	959.173157
-33.341423	9.935000	956.472595
-32.341423	9.935000	963.615234
-31.341423	9.935000	962.030334
-30.341423	9.935000	957.847534
-29.341423	9.935000	959.933228
-28.341423	9.935000	964.047058
-27.341423	9.935000	950.814819
-26.341423	9.935000	1007.266602
-25.341423	9.935000	968.897339
-24.341423	9.935000	966.569336
-23.341423	9.935000	965.758667
-22.341423	9.935000	961.412170
-21.341423	9.935000	964.727661
-20.341423	9.935000	955.859253
-19.341423	9.935000	1100.000000
-18.341423	9.935000	961.575989
-17.341423	9.935000	960.019775
-16.341423	9.935000	958.892151
-15.341423	9.935000	947.920715
-14.341423	9.935000	961.315796
-13.341423	9.935000	948.866455
-12.341423	9.935000	964.748596
-11.341423	9.935000	965.820435
-10.341423	9.935000	965.943420
-9.341423	9.935000	970.527283
-8.341423	9.935000	1016.780090
-7.341423	9.935000	1100.000000
-6.341423	9.935000	960.861328
-5.341423	9.935000	960.607422
-4.341423	9.935000	969.102905
-3.341423	9.935000	970.907104
-2.341423	9.935000	966.255554
-1.341423	9.935000	956.541016
-0.341423	9.935000	960.505371
0.658577	9.935000	965.021667
1.658577	9.935000	969.854126
2.658577	9.935000	1100.000000
3.658577	9.935000	934.952454
4.658577	9.935000	963.229004
5.658577	9.935000	1046.743286
6.658577	9.935000	976.632813
7.658577	9.935000	952.248352
8.658577	9.935000	955.669373
9.658577	9.935000	978.103882
10.658577	9.935000	900.628296
11.658577	9.935000	956.012390
12.658577	9.935000	997.293213
13.658577	9.935000	967.031250
14.658577	9.935000	969.100830
15.658577	9.935000	967.877075
16.658577	9.935000	967.798218
17.658577	9.935000	967.109131
18.658577	9.935000	967.636902
19.658577	9.935000	967.306946
20.658577	9.935000	967.304993
21.658577	9.935000	967.987793
22.658577	9.935000	966.528381
23.658577	9.935000	968.247681
24.658577	9.935000	966.749146
-39.341423	10.935000	967.224731
-38.341423	10.935000	964.982605
-37.341423	10.935000	957.181946
-36.341423	10.935000	972.122070
-35.341423	10.935000	961.877075
-34.341423	10.935000	958.446045
-33.341423	10.935000	960.110352
-32.341423	10.935000	953.560425
-31.341423	10.935000	959.869507
-30.341423	10.935000	957.861450
-29.341423	10.935000	961.386169
-28.341423	10.935000	978.624451
-27.341423	10.935000	968.672668
-26.341423	10.935000	978.528809
-25.341423	10.935000	966.967712
-24.341423	10.935000	967.609009
-23.341423	10.935000	964.972534
-22.341423	10.935000	971.285034
-21.341423	10.935000	971.649719
-20.341423	10.935000	962.249695
-19.341423	10.935000	960.608826
-18.341423	10.935000	901.533752
-17.341423	10.935000	945.725342
-16.341423	10.935000	972.660767
-15.341423	10.935000	963.020813
-14.341423	10.935000	960.817139
-13.341423	10.935000	1065.932129
-12.341423	10.935000	967.366333
-11.341423	10.935000	967.719849
-10.341423	10.935000	957.559326
-9.341423	10.935000	957.992432
-8.341423	10.935000	968.862183
-7.341423	10.935000	970.703064
-6.341423	10.935000	964.027161
-5.341423	10.935000	957.327942
-4.341423	10.935000	965.512024
-3.341423	10.935000	969.449097
-2.341423	10.935000	967.277039
-1.341423	10.935000	965.987549
-0.341423	10.935000	960.929749
0.658577	10.935000	958.702698
1.658577	10.935000	957.509644
2.658577	10.935000	966.217041
3.658577	10.935000	966.415955
4.658577	10.935000	978.560242
5.658577	10.935000	957.310730
6.658577	10.935000	903.800598
7.658577	10.935000	1100.000000
8.658577	10.935000	965.660645
9.658577	10.935000	963.773193
10.658577	10.935000	964.166687
11.658577	10.935000	957.482361
12.658577	10.935000	958.160034
13.658577	10.935000	965.829895
14.658577	10.935000	967.050903
15.658577	10.935000	968.929810
16.658577	10.935000	967.280823
17.658577	10.935000	967.018616
18.658577	10.935000	968.095581
19.658577	10.935000	967.499329
20.658577	10.935000	965.934387
21.658577	10.935000	963.355042
22.658577	10.935000	967.944275
23.658577	10.935000	969.330811
24.658577	10.935000	966.718445
-39.341423	11.935000	963.548828
-38.341423	11.935000	963.690247
-37.341423	11.935000	961.959290
-36.341423	11.935000	956.808777
-35.341423	11.935000	961.386780
-34.341423	11.935000	969.108643
-33.341423	11.935000	961.765991
-32.341423	11.935000	963.082520
-31.341423	11.935000	957.617554
-30.341423	11.935000	955.747925
-29.341423	11.935000	957.182129
-28.341423	11.935000	1088.875732
-27.341423	11.935000	966.960754
-26.341423	11.935000	967.883606
-25.341423	11.935000	969.250671
-24.341423	11.935000	970.727844
-23.341423	11.935000	968.302368
-22.341423	11.935000	967.732910
-21.341423	11.935000	965.041443
-20.341423	11.935000	970.392517
-19.341423	11.935000	959.983643
-18.341423	11.935000	962.555603
-17.341423	11.935000	966.965271
-16.341423	11.935000	956.641602
-15.341423	11.935000	963.358154
-14.341423	11.935000	962.773804
-13.341423	11.935000	961.938965
-12.341423	11.935000	962.274231
-11.341423	11.935000	967.836914
-10.341423	11.935000	956.591675
-9.341423	11.935000	976.268860
-8.341423	11.935000	969.631287
-7.341423	11.935000	972.169983
-6.341423	11.935000	968.642273
-5.341423	11.935000	965.323181
-4.341423	11.935000	962.619873
-3.341423	11.935000	965.704712
-2.341423	11.935000	966.515625
-1.341423	11.935000	968.440796
-0.341423	11.935000	965.454712
0.658577	11.935000	961.447815
1.658577	11.935000	961.388672
2.658577	11.935000	964.669678
3.658577	11.935000	900.000000
4.658577	11.935000	972.594177
5.658577	11.935000	1044.923584
6.658577	11.935000	963.880676
7.658577	11.935000	972.549683
8.658577	11.935000	900.000000
9.658577	11.935000	1100.000000
10.658577	11.935000	962.419861
11.658577	11.935000	967.308716
12.658577	11.935000	964.611816
13.658577	11.935000	966.889832
14.658577	11.935000	966.877808
15.658577	11.935000	967.496887
16.658577	11.935000	963.278320
17.658577	11.935000	959.768677
18.658577	11.935000	963.438843
19.658577	11.935000	967.614136
20.658577	11.935000	968.536316
21.658577	11.935000	969.526855
22.658577	11.935000	967.672180
23.658577	11.935000	965.230957
24.658577	11.935000	969.945313
-39.341423	12.935000	960.568848
-38.341423	12.935000	953.599609
-37.341423	12.935000	959.452148
-36.341423	12.935000	962.660828
-35.341423	12.935000	964.056335
-34.341423	12.935000	965.381165
-33.341423	12.935000	963.036072
-32.341423	12.935000	960.063538
-31.341423	12.935000	957.052063
-30.341423	12.935000	958.409607
-29.341423	12.935000	964.469116
-28.341423	12.935000	964.528870
-27.341423	12.935000	967.575073
-26.341423	12.935000	969.298035
-25.341423	12.935000	968.563965
-24.341423	12.935000	968.111145
-23.341423	12.935000	1100.000000
-22.341423	12.935000	958.977722
-21.341423	12.935000	960.967285
-20.341423	12.935000	900.000000
-19.341423	12.935000	961.795288
-18.341423	12.935000	965.816711
-17.341423	12.935000	965.588501
-16.341423	12.935000	960.654602
-15.341423	12.935000	965.335999
-14.341423	12.935000	958.585022
-13.341423	12.935000	968.196899
-12.341423	12.935000	963.964661
-11.341423	12.935000	961.800476
-10.341423	12.935000	1100.000000
-9.341423	12.935000	998.429443
-8.341423	12.935000	968.638550
-7.341423	12.935000	969.488770
-6.341423	12.935000	966.012207
-5.341423	12.935000	965.203796
-4.341423	12.935000	964.447632
-3.341423	12.935000	956.884705
-2.341423	12.935000	968.124023
-1.341423	12.935000	910.717041
-0.341423	12.935000	970.319153
0.658577	12.935000	966.589783
1.658577	12.935000	964.971924
2.658577	12.935000	900.661926
3.658577	12.935000	967.663940
4.658577	12.935000	964.710693
5.658577	12.935000	964.111938
6.658577	12.935000	989.813416
7.658577	12.935000	900.000000
8.658577	12.935000	959.464722
9.658577	12.935000	961.546387
10.658577	12.935000	965.202637
11.658577	12.935000	963.143005
12.658577	12.935000	966.053162
13.658577	12.935000	966.025208
14.658577	12.935000	968.015747
15.658577	12.935000	970.705872
16.658577	12.935000	964.912354
17.658577	12.935000	962.318481
18.658577	12.935000	968.629944
19.658577	12.935000	967.935669
20.658577	12.935000	966.074585
21.658577	12.935000	967.477112
22.658577	12.935000	965.343323
23.658577	12.935000	966.921021
24.658577	12.935000	965.302002
-39.341423	13.935000	952.922913
-38.341423	13.935000	951.239807
-37.341423	13.935000	950.199768
-36.341423	13.935000	967.262451
-35.341423	13.935000	954.388428
-34.341423	13.935000	956.912354
-33.341423	13.935000	960.827271
-32.341423	13.935000	961.058594
-31.341423	13.935000	958.248169
-30.341423	13.935000	962.609253
-29.341423	13.935000	965.794678
-28.341423	13.935000	969.591858
-27.341423	13.935000	976.084961
-26.341423	13.935000	934.337524
-25.341423	13.935000	970.116089
-24.341423	13.935000	965.367615
-23.341423	13.935000	955.991760
-22.341423	13.935000	957.597351
-21.341423	13.935000	967.993530
-20.341423	13.935000	958.397217
-19.341423	13.935000	964.329712
-18.341423	13.935000	908.529480
-17.341423	13.935000	967.040039
-16.341423	13.935000	958.038940
-15.341423	13.935000	965.007019
-14.341423	13.935000	971.118835
-13.341423	13.935000	959.090637
-12.341423	13.935000	963.663574
-11.341423	13.935000	967.599670
-10.341423	13.935000	966.468628
-9.341423	13.935000	961.623535
-8.341423	13.935000	976.065247
-7.341423	13.935000	968.206299
-6.341423	13.935000	968.598328
-5.341423	13.935000	965.893188
-4.341423	13.935000	979.748169
-3.341423	13.935000	917.840393
-2.341423	13.935000	964.741333
-1.341423	13.935000	965.021790
-0.341423	13.935000	957.276855
0.658577	13.935000	966.410950
1.658577	13.935000	961.554443
2.658577	13.935000	961.360168
3.658577	13.935000	968.528625
4.658577	13.935000	967.535278
5.658577	13.935000	965.631470
6.658577	13.935000	967.810852
7.658577	13.935000	965.464294
8.658577	13.935000	957.260498
9.658577	13.935000	966.755432
10.658577	13.935000	964.227966
11.658577	13.935000	966.445313
12.658577	13.935000	966.381714
13.658577	13.935000	966.397400
14.658577	13.935000	965.506226
15.658577	13.935000	967.248047
16.658577	13.935000	969.081055
17.658577	13.935000	968.121399
18.658577	13.935000	970.412598
19.658577	13.935000	968.078369
20.658577	13.935000	966.807983
21.658577	13.935000	968.341614
22.658577	13.935000	967.632263
23.658577	13.935000	965.942993
24.658577	13.935000	964.877014
-39.341423	14.935000	962.450073
-38.341423	14.935000	959.935852
-37.341423	14.935000	963.347717
-36.341423	14.935000	959.821594
-35.341423	14.935000	961.818176
-34.341423	14.935000	963.389954
-33.341423	14.935000	960.258179
-32.341423	14.935000	956.503601
-31.341423	14.935000	964.024414
-30.341423	14.935000	962.114075
-29.341423	14.935000	1015.588257
-28.341423	14.935000	968.813538
-27.341423	14.935000	987.220337
-26.341423	14.935000	965.792175
-25.341423	14.935000	963.056458
-24.341423	14.935000	967.631531
-23.341423	14.935000	967.266052
-22.341423	14.935000	967.328613
-21.341423	14.935000	900.000000
-20.341423	14.935000	963.046936
-19.341423	14.935000	958.018555
-18.341423	14.935000	1100.000000
-17.341423	14.935000	966.497253
-16.341423	14.935000	966.050415
-15.341423	14.935000	970.187683
-14.341423	14.935000	965.227356
-13.341423	14.935000	963.581055
-12.341423	14.935000	964.785889
-11.341423	14.935000	962.625854
-10.341423	14.935000	966.861572
-9.341423	14.935000	967.611084
-8.341423	14.935000	968.491760
-7.341423	14.935000	968.308167
-6.341423	14.935000	963.240784
-5.341423	14.935000	959.872314
-4.341423	14.935000	952.885803
-3.341423	14.935000	962.787476
-2.341423	14.935000	967.573364
-1.341423	14.935000	1100.000000
-0.341423	14.935000	965.265503
0.658577	14.935000	1100.000000
1.658577	14.935000	964.779053
2.658577	14.935000	965.568909
3.658577	14.935000	966.495911
4.658577	14.935000	967.862488
5.658577	14.935000	969.279968
6.658577	14.935000	968.177124
7.658577	14.935000	968.514160
8.658577	14.935000	965.491455
9.658577	14.935000	967.983215
10.658577	14.935000	966.147461
11.658577	14.935000	982.533691
12.658577	14.935000	967.551636
13.658577	14.935000	968.003662
14.658577	14.935000	966.528137
15.658577	14.935000	967.019592
16.658577	14.935000	967.423645
17.658577	14.935000	968.867126
18.658577	14.935000	965.662720
19.658577	14.935000	968.736267
20.658577	14.935000	965.823853
21.658577	14.935000	966.142822
22.658577	14.935000	966.531982
23.658577	14.935000	969.658264
24.658577	14.935000	964.989258
-39.341423	15.935000	960.412354
-38.341423	15.935000	957.526062
-37.341423	15.935000	966.667664
-36.341423	15.935000	960.935181
-35.341423	15.935000	959.933777
-34.341423	15.935000	962.615723
-33.341423	15.935000	963.779236
-32.341423	15.935000	960.726318
-31.341423	15.935000	959.088379
-30.341423	15.935000	964.505981
-29.341423	15.935000	1100.000000
-28.341423	15.935000	971.196594
-27.341423	15.935000	901.732788
-26.341423	15.935000	967.484924
-25.341423	15.935000	900.000000
-24.341423	15.935000	966.566467
-23.341423	15.935000	967.723999
-22.341423	15.935000	966.245483
-21.341423	15.935000	965.951843
-20.341423	15.935000	963.645447
-19.341423	15.935000	960.246399
-18.341423	15.935000	960.173218
-17.341423	15.935000	900.000000
-16.341423	15.935000	962.285522
-15.341423	15.935000	962.687805
-14.341423	15.935000	961.368225
-13.341423	15.935000	1087.779785
-12.341423	15.935000	965.333679
-11.341423	15.935000	1100.000000
-10.341423	15.935000	967.724426
-9.341423	15.935000	967.405396
-8.341423	15.935000	966.245056
-7.341423	15.935000	962.864136
-6.341423	15.935000	964.642212
-5.341423	15.935000	976.182800
-4.341423	15.935000	966.792419
-3.341423	15.935000	953.959595
-2.341423	15.935000	964.683533
-1.341423	15.935000	961.856384
-0.341423	15.935000	956.215271
0.658577	15.935000	949.589111
1.658577	15.935000	961.584961
2.658577	15.935000	964.318970
3.658577	15.935000	970.279480
4.658577	15.935000	968.139465
5.658577	15.935000	968.457397
6.658577	15.935000	969.160889
7.658577	15.935000	967.334778
8.658577	15.935000	966.765991
9.658577	15.935000	986.129028
10.658577	15.935000	943.268494
11.658577	15.935000	965.301819
12.658577	15.935000	965.296753
13.658577	15.935000	968.097839
14.658577	15.935000	966.945557
15.658577	15.935000	968.233276
16.658577	15.935000	967.537903
17.658577	15.935000	967.351868
18.658577	15.935000	968.118469
19.658577	15.935000	964.974976
20.658577	15.935000	966.618958
21.658577	15.935000	968.588501
22.658577	15.935000	966.188049
23.658577	15.935000	967.001465
24.658577	15.935000	970.055969
