#XList		#YList		#IList		
-39.341423	-21.065000	33.515320
-38.341423	-21.065000	37.836723
-37.341423	-21.065000	41.279335
-36.341423	-21.065000	1.007623
-35.341423	-21.065000	42.920822
-34.341423	-21.065000	0.639823
-33.341423	-21.065000	0.639823
-32.341423	-21.065000	0.639823
-31.341423	-21.065000	0.639823
-30.341423	-21.065000	0.639823
-29.341423	-21.065000	0.639823
-28.341423	-21.065000	0.992921
-27.341423	-21.065000	0.648575
-26.341423	-21.065000	5.428888
-25.341423	-21.065000	48.781898
-24.341423	-21.065000	58.088028
-23.341423	-21.065000	60.051155
-22.341423	-21.065000	57.414589
-21.341423	-21.065000	48.934666
-20.341423	-21.065000	55.382816
-19.341423	-21.065000	55.458279
-18.341423	-21.065000	59.176441
-17.341423	-21.065000	48.155556
-16.341423	-21.065000	0.639823
-15.341423	-21.065000	0.639823
-14.341423	-21.065000	0.639823
-13.341423	-21.065000	0.639823
-12.341423	-21.065000	0.639823
-11.341423	-21.065000	44.548187
-10.341423	-21.065000	56.274712
-9.341423	-21.065000	56.328102
-8.341423	-21.065000	44.160477
-7.341423	-21.065000	0.639823
-6.341423	-21.065000	11.843225
-5.341423	-21.065000	29.804777
-4.341423	-21.065000	52.571133
-3.341423	-21.065000	57.349892
-2.341423	-21.065000	29.158474
-1.341423	-21.065000	0.639823
-0.341423	-21.065000	10.064679
0.658577	-21.065000	23.595695
1.658577	-21.065000	44.275562
2.658577	-21.065000	36.686600
3.658577	-21.065000	5.718917
4.658577	-21.065000	399.974548
5.658577	-21.065000	38.127190
6.658577	-21.065000	61.032318
7.658577	-21.065000	51.024601
8.658577	-21.065000	58.501991
9.658577	-21.065000	60.663422
10.658577	-21.065000	53.939011
11.658577	-21.065000	43.819740
12.658577	-21.065000	0.710964
13.658577	-21.065000	24.369434
14.658577	-21.065000	7.568366
15.658577	-21.065000	0.639823
16.658577	-21.065000	40.857441
17.658577	-21.065000	27.553659
18.658577	-21.065000	18.807945
19.658577	-21.065000	6.223145
20.658577	-21.065000	37.149212
21.658577	-21.065000	56.654793
22.658577	-21.065000	62.049446
23.658577	-21.065000	55.869583
24.658577	-21.065000	64.283470
-39.341423	-20.065000	40.320648
-38.341423	-20.065000	33.484253
-37.341423	-20.065000	40.852139
-36.341423	-20.065000	38.519894
-35.341423	-20.065000	42.712719
-34.341423	-20.065000	0.906260
-33.341423	-20.065000	12.121318
-32.341423	-20.065000	0.639823
-31.341423	-20.065000	0.639823
-30.341423	-20.065000	0.639823
-29.341423	-20.065000	9.529719
-28.341423	-20.065000	0.676717
-27.341423	-20.065000	3.200182
-26.341423	-20.065000	0.639833
-25.341423	-20.065000	0.639823
-24.341423	-20.065000	38.978413
-23.341423	-20.065000	48.376476
-22.341423	-20.065000	51.526199
-21.341423	-20.065000	1.367232
-20.341423	-20.065000	42.368176
-19.341423	-20.065000	18.796162
-18.341423	-20.065000	36.509327
-17.341423	-20.065000	0.639823
-16.341423	-20.065000	0.639823
-15.341423	-20.065000	0.639823
-14.341423	-20.065000	0.639823
-13.341423	-20.065000	0.639823
-12.341423	-20.065000	0.639823
-11.341423	-20.065000	52.644184
-10.341423	-20.065000	54.736370
-9.341423	-20.065000	0.639823
-8.341423	-20.065000	22.774170
-7.341423	-20.065000	0.639823
-6.341423	-20.065000	15.598370
-5.341423	-20.065000	29.442545
-4.341423	-20.065000	48.873123
-3.341423	-20.065000	46.302643
-2.341423	-20.065000	0.652771
-1.341423	-20.065000	20.802515
-0.341423	-20.065000	3.137663
0.658577	-20.065000	0.639823
1.658577	-20.065000	33.927345
2.658577	-20.065000	36.579006
3.658577	-20.065000	0.645568
4.658577	-20.065000	14.030393
5.658577	-20.065000	62.217121
6.658577	-20.065000	54.167995
7.658577	-20.065000	61.664356
8.658577	-20.065000	59.926826
9.658577	-20.065000	51.478813
10.658577	-20.065000	39.124008
11.658577	-20.065000	33.414238
12.658577	-20.065000	25.674887
13.658577	-20.065000	27.447056
14.658577	-20.065000	0.639823
15.658577	-20.065000	0.639823
16.658577	-20.065000	0.639823
17.658577	-20.065000	41.516800
18.658577	-20.065000	0.639823
19.658577	-20.065000	3.841104
20.658577	-20.065000	0.639823
21.658577	-20.065000	40.144882
22.658577	-20.065000	59.508667
23.658577	-20.065000	59.396652
24.658577	-20.065000	60.669086
-39.341423	-19.065000	20.147062
-38.341423	-19.065000	37.442360
-37.341423	-19.065000	43.719131
-36.341423	-19.065000	40.849373
-35.341423	-19.065000	32.349205
-34.341423	-19.065000	56.838692
-33.341423	-19.065000	42.426365
-32.341423	-19.065000	0.639823
-31.341423	-19.065000	0.639823
-30.341423	-19.065000	0.639823
-29.341423	-19.065000	0.639823
-28.341423	-19.065000	18.384981
-27.341423	-19.065000	19.467304
-26.341423	-19.065000	29.064276
-25.341423	-19.065000	0.639823
-24.341423	-19.065000	0.777927
-23.341423	-19.065000	0.639823
-22.341423	-19.065000	0.639823
-21.341423	-19.065000	0.639823
-20.341423	-19.065000	9.819250
-19.341423	-19.065000	6.878971
-18.341423	-19.065000	36.790924
-17.341423	-19.065000	0.639823
-16.341423	-19.065000	0.639823
-15.341423	-19.065000	0.639823
-14.341423	-19.065000	0.639823
-13.341423	-19.065000	0.639823
-12.341423	-19.065000	0.639823
-11.341423	-19.065000	37.681778
-10.341423	-19.065000	0.639823
-9.341423	-19.065000	23.269011
-8.341423	-19.065000	0.639823
-7.341423	-19.065000	19.821680
-6.341423	-19.065000	0.639823
-5.341423	-19.065000	36.108368
-4.341423	-19.065000	15.264302
-3.341423	-19.065000	0.639823
-2.341423	-19.065000	36.786705
-1.341423	-19.065000	160.946106
-0.341423	-19.065000	20.969332
0.658577	-19.065000	36.215927
1.658577	-19.065000	0.639823
2.658577	-19.065000	26.259497
3.658577	-19.065000	31.898750
4.658577	-19.065000	0.684032
5.658577	-19.065000	60.900745
6.658577	-19.065000	56.892838
7.658577	-19.065000	58.678856
8.658577	-19.065000	47.855286
9.658577	-19.065000	2.060511
10.658577	-19.065000	30.413261
11.658577	-19.065000	14.964089
12.658577	-19.065000	39.620159
13.658577	-19.065000	0.639823
14.658577	-19.065000	25.996319
15.658577	-19.065000	51.558136
16.658577	-19.065000	28.262587
17.658577	-19.065000	46.970974
18.658577	-19.065000	13.382988
19.658577	-19.065000	4.096681
20.658577	-19.065000	0.639823
21.658577	-19.065000	40.356415
22.658577	-19.065000	56.790092
23.658577	-19.065000	58.672855
24.658577	-19.065000	53.668865
-39.341423	-18.065000	0.639823
-38.341423	-18.065000	28.172110
-37.341423	-18.065000	22.711084
-36.341423	-18.065000	28.381132
-35.341423	-18.065000	30.631495
-34.341423	-18.065000	64.163963
-33.341423	-18.065000	46.844505
-32.341423	-18.065000	0.639823
-31.341423	-18.065000	0.639823
-30.341423	-18.065000	0.639823
-29.341423	-18.065000	0.639823
-28.341423	-18.065000	9.126625
-27.341423	-18.065000	15.926341
-26.341423	-18.065000	6.658585
-25.341423	-18.065000	14.051622
-24.341423	-18.065000	0.639823
-23.341423	-18.065000	17.420536
-22.341423	-18.065000	5.103407
-21.341423	-18.065000	6.257543
-20.341423	-18.065000	13.843200
-19.341423	-18.065000	24.350449
-18.341423	-18.065000	0.822430
-17.341423	-18.065000	0.639823
-16.341423	-18.065000	0.639823
-15.341423	-18.065000	0.639823
-14.341423	-18.065000	0.639823
-13.341423	-18.065000	0.639823
-12.341423	-18.065000	0.639823
-11.341423	-18.065000	0.639823
-10.341423	-18.065000	5.965150
-9.341423	-18.065000	11.379090
-8.341423	-18.065000	0.749458
-7.341423	-18.065000	11.903749
-6.341423	-18.065000	0.639823
-5.341423	-18.065000	50.628399
-4.341423	-18.065000	34.373970
-3.341423	-18.065000	0.639823
-2.341423	-18.065000	20.927719
-1.341423	-18.065000	33.309841
-0.341423	-18.065000	31.215904
0.658577	-18.065000	36.973072
1.658577	-18.065000	33.492550
2.658577	-18.065000	27.945230
3.658577	-18.065000	37.089516
4.658577	-18.065000	8.535336
5.658577	-18.065000	49.186531
6.658577	-18.065000	40.958515
7.658577	-18.065000	0.639823
8.658577	-18.065000	0.639823
9.658577	-18.065000	6.732318
10.658577	-18.065000	5.022112
11.658577	-18.065000	0.639823
12.658577	-18.065000	0.639823
13.658577	-18.065000	0.653331
14.658577	-18.065000	0.639823
15.658577	-18.065000	0.698266
16.658577	-18.065000	1.071505
17.658577	-18.065000	0.796696
18.658577	-18.065000	0.639823
19.658577	-18.065000	43.235546
20.658577	-18.065000	58.251228
21.658577	-18.065000	48.466015
22.658577	-18.065000	0.639823
23.658577	-18.065000	27.299358
24.658577	-18.065000	44.070385
-39.341423	-17.065000	6.175546
-38.341423	-17.065000	0.639823
-37.341423	-17.065000	0.639823
-36.341423	-17.065000	51.727917
-35.341423	-17.065000	60.178017
-34.341423	-17.065000	58.129154
-33.341423	-17.065000	49.233963
-32.341423	-17.065000	38.776772
-31.341423	-17.065000	0.639823
-30.341423	-17.065000	17.511026
-29.341423	-17.065000	14.258909
-28.341423	-17.065000	0.653753
-27.341423	-17.065000	31.484129
-26.341423	-17.065000	0.639823
-25.341423	-17.065000	8.497034
-24.341423	-17.065000	5.132652
-23.341423	-17.065000	8.900434
-22.341423	-17.065000	24.320534
-21.341423	-17.065000	108.934769
-20.341423	-17.065000	51.932335
-19.341423	-17.065000	44.312065
-18.341423	-17.065000	57.143646
-17.341423	-17.065000	39.819965
-16.341423	-17.065000	0.639823
-15.341423	-17.065000	0.639823
-14.341423	-17.065000	0.639823
-13.341423	-17.065000	0.639823
-12.341423	-17.065000	0.644343
-11.341423	-17.065000	0.639823
-10.341423	-17.065000	0.983358
-9.341423	-17.065000	24.861528
-8.341423	-17.065000	0.639823
-7.341423	-17.065000	49.898911
-6.341423	-17.065000	0.639823
-5.341423	-17.065000	0.693703
-4.341423	-17.065000	36.018089
-3.341423	-17.065000	1.000601
-2.341423	-17.065000	33.504929
-1.341423	-17.065000	9.507176
-0.341423	-17.065000	33.346794
0.658577	-17.065000	27.660986
1.658577	-17.065000	33.264534
2.658577	-17.065000	29.073427
3.658577	-17.065000	42.009426
4.658577	-17.065000	0.697004
5.658577	-17.065000	57.905392
6.658577	-17.065000	1.374084
7.658577	-17.065000	0.639823
8.658577	-17.065000	2.314888
9.658577	-17.065000	0.639823
10.658577	-17.065000	8.874135
11.658577	-17.065000	9.770036
12.658577	-17.065000	0.639823
13.658577	-17.065000	33.164017
14.658577	-17.065000	35.737049
15.658577	-17.065000	0.639823
16.658577	-17.065000	44.590549
17.658577	-17.065000	34.396736
18.658577	-17.065000	38.935135
19.658577	-17.065000	62.537605
20.658577	-17.065000	55.137966
21.658577	-17.065000	40.772839
22.658577	-17.065000	42.828854
23.658577	-17.065000	0.639823
24.658577	-17.065000	0.646433
-39.341423	-16.065000	23.809227
-38.341423	-16.065000	0.644378
-37.341423	-16.065000	45.537094
-36.341423	-16.065000	54.637764
-35.341423	-16.065000	47.253830
-34.341423	-16.065000	43.253265
-33.341423	-16.065000	0.639823
-32.341423	-16.065000	0.639823
-31.341423	-16.065000	10.143635
-30.341423	-16.065000	8.045128
-29.341423	-16.065000	16.176849
-28.341423	-16.065000	20.091047
-27.341423	-16.065000	16.719271
-26.341423	-16.065000	12.123119
-25.341423	-16.065000	9.290056
-24.341423	-16.065000	0.640068
-23.341423	-16.065000	0.728447
-22.341423	-16.065000	0.639823
-21.341423	-16.065000	19.948502
-20.341423	-16.065000	55.259560
-19.341423	-16.065000	59.976418
-18.341423	-16.065000	56.825222
-17.341423	-16.065000	45.503056
-16.341423	-16.065000	0.639823
-15.341423	-16.065000	0.639823
-14.341423	-16.065000	0.639823
-13.341423	-16.065000	0.639823
-12.341423	-16.065000	0.639823
-11.341423	-16.065000	0.650941
-10.341423	-16.065000	37.112988
-9.341423	-16.065000	0.639823
-8.341423	-16.065000	47.733223
-7.341423	-16.065000	38.785210
-6.341423	-16.065000	0.642191
-5.341423	-16.065000	0.639823
-4.341423	-16.065000	0.639823
-3.341423	-16.065000	0.823758
-2.341423	-16.065000	42.530361
-1.341423	-16.065000	29.067022
-0.341423	-16.065000	6.087164
0.658577	-16.065000	12.541581
1.658577	-16.065000	33.965973
2.658577	-16.065000	0.639823
3.658577	-16.065000	0.639823
4.658577	-16.065000	48.837170
5.658577	-16.065000	30.277876
6.658577	-16.065000	13.476439
7.658577	-16.065000	18.362286
8.658577	-16.065000	5.199058
9.658577	-16.065000	6.332992
10.658577	-16.065000	5.482927
11.658577	-16.065000	0.639823
12.658577	-16.065000	0.639823
13.658577	-16.065000	47.459263
14.658577	-16.065000	44.302364
15.658577	-16.065000	0.725984
16.658577	-16.065000	30.399420
17.658577	-16.065000	45.819988
18.658577	-16.065000	56.165848
19.658577	-16.065000	23.862730
20.658577	-16.065000	47.035091
21.658577	-16.065000	21.176714
22.658577	-16.065000	38.430874
23.658577	-16.065000	0.639823
24.658577	-16.065000	38.064732
-39.341423	-15.065000	37.672142
-38.341423	-15.065000	60.676064
-37.341423	-15.065000	45.437134
-36.341423	-15.065000	0.639823
-35.341423	-15.065000	0.639823
-34.341423	-15.065000	0.639823
-33.341423	-15.065000	0.639823
-32.341423	-15.065000	0.639823
-31.341423	-15.065000	2.911489
-30.341423	-15.065000	9.749581
-29.341423	-15.065000	15.831948
-28.341423	-15.065000	15.356001
-27.341423	-15.065000	11.090114
-26.341423	-15.065000	12.223713
-25.341423	-15.065000	6.254396
-24.341423	-15.065000	10.717320
-23.341423	-15.065000	14.763308
-22.341423	-15.065000	21.154982
-21.341423	-15.065000	50.087521
-20.341423	-15.065000	58.592896
-19.341423	-15.065000	57.206654
-18.341423	-15.065000	40.944530
-17.341423	-15.065000	0.803979
-16.341423	-15.065000	0.639823
-15.341423	-15.065000	0.639823
-14.341423	-15.065000	0.639823
-13.341423	-15.065000	0.639823
-12.341423	-15.065000	20.871475
-11.341423	-15.065000	41.742596
-10.341423	-15.065000	17.044640
-9.341423	-15.065000	0.639823
-8.341423	-15.065000	0.639823
-7.341423	-15.065000	0.639823
-6.341423	-15.065000	0.639823
-5.341423	-15.065000	13.107359
-4.341423	-15.065000	30.332304
-3.341423	-15.065000	36.965809
-2.341423	-15.065000	40.498825
-1.341423	-15.065000	44.118252
-0.341423	-15.065000	2.359274
0.658577	-15.065000	9.971056
1.658577	-15.065000	28.344597
2.658577	-15.065000	29.873537
3.658577	-15.065000	38.763588
4.658577	-15.065000	0.639823
5.658577	-15.065000	0.639823
6.658577	-15.065000	0.639823
7.658577	-15.065000	6.115677
8.658577	-15.065000	0.639823
9.658577	-15.065000	0.639823
10.658577	-15.065000	0.639823
11.658577	-15.065000	0.639823
12.658577	-15.065000	52.632256
13.658577	-15.065000	56.273594
14.658577	-15.065000	48.389233
15.658577	-15.065000	57.178429
16.658577	-15.065000	47.043079
17.658577	-15.065000	27.185982
18.658577	-15.065000	0.639823
19.658577	-15.065000	51.271255
20.658577	-15.065000	50.633968
21.658577	-15.065000	0.640162
22.658577	-15.065000	0.639823
23.658577	-15.065000	31.698709
24.658577	-15.065000	44.047512
-39.341423	-14.065000	52.160748
-38.341423	-14.065000	50.139668
-37.341423	-14.065000	0.639823
-36.341423	-14.065000	0.639823
-35.341423	-14.065000	0.639823
-34.341423	-14.065000	0.639823
-33.341423	-14.065000	0.639823
-32.341423	-14.065000	0.639823
-31.341423	-14.065000	0.639823
-30.341423	-14.065000	10.340060
-29.341423	-14.065000	8.670335
-28.341423	-14.065000	11.240384
-27.341423	-14.065000	0.639823
-26.341423	-14.065000	5.450886
-25.341423	-14.065000	11.276059
-24.341423	-14.065000	18.706612
-23.341423	-14.065000	103.022545
-22.341423	-14.065000	0.639823
-21.341423	-14.065000	47.923927
-20.341423	-14.065000	47.543911
-19.341423	-14.065000	57.785908
-18.341423	-14.065000	40.699219
-17.341423	-14.065000	45.712654
-16.341423	-14.065000	0.639823
-15.341423	-14.065000	0.639823
-14.341423	-14.065000	0.639823
-13.341423	-14.065000	44.054722
-12.341423	-14.065000	0.872288
-11.341423	-14.065000	34.943760
-10.341423	-14.065000	32.311062
-9.341423	-14.065000	34.987759
-8.341423	-14.065000	37.257778
-7.341423	-14.065000	35.556602
-6.341423	-14.065000	31.442558
-5.341423	-14.065000	32.753395
-4.341423	-14.065000	39.235287
-3.341423	-14.065000	33.077160
-2.341423	-14.065000	41.607159
-1.341423	-14.065000	39.453117
-0.341423	-14.065000	22.478292
0.658577	-14.065000	16.408396
1.658577	-14.065000	21.822538
2.658577	-14.065000	38.913750
3.658577	-14.065000	0.639823
4.658577	-14.065000	33.767155
5.658577	-14.065000	13.894172
6.658577	-14.065000	0.639823
7.658577	-14.065000	0.639823
8.658577	-14.065000	17.511124
9.658577	-14.065000	0.639823
10.658577	-14.065000	0.866003
11.658577	-14.065000	53.270496
12.658577	-14.065000	57.158413
13.658577	-14.065000	41.718365
14.658577	-14.065000	48.565979
15.658577	-14.065000	62.429386
16.658577	-14.065000	57.875835
17.658577	-14.065000	58.705055
18.658577	-14.065000	49.068939
19.658577	-14.065000	48.632050
20.658577	-14.065000	41.461212
21.658577	-14.065000	23.591562
22.658577	-14.065000	0.639823
23.658577	-14.065000	42.866291
24.658577	-14.065000	51.228485
-39.341423	-13.065000	0.639823
-38.341423	-13.065000	0.639823
-37.341423	-13.065000	0.639823
-36.341423	-13.065000	0.639823
-35.341423	-13.065000	0.639823
-34.341423	-13.065000	0.639823
-33.341423	-13.065000	0.639823
-32.341423	-13.065000	0.639823
-31.341423	-13.065000	0.639823
-30.341423	-13.065000	0.639823
-29.341423	-13.065000	0.639823
-28.341423	-13.065000	10.015235
-27.341423	-13.065000	15.295341
-26.341423	-13.065000	8.239702
-25.341423	-13.065000	0.639823
-24.341423	-13.065000	0.639823
-23.341423	-13.065000	17.719831
-22.341423	-13.065000	3.922843
-21.341423	-13.065000	14.010665
-20.341423	-13.065000	0.676531
-19.341423	-13.065000	60.782032
-18.341423	-13.065000	41.693577
-17.341423	-13.065000	36.740234
-16.341423	-13.065000	50.035591
-15.341423	-13.065000	26.754404
-14.341423	-13.065000	58.982754
-13.341423	-13.065000	58.141178
-12.341423	-13.065000	50.496304
-11.341423	-13.065000	34.055286
-10.341423	-13.065000	26.134048
-9.341423	-13.065000	0.639823
-8.341423	-13.065000	33.953793
-7.341423	-13.065000	36.875153
-6.341423	-13.065000	32.095314
-5.341423	-13.065000	33.460091
-4.341423	-13.065000	38.953529
-3.341423	-13.065000	35.394360
-2.341423	-13.065000	32.422653
-1.341423	-13.065000	33.149853
-0.341423	-13.065000	3.686225
0.658577	-13.065000	12.977493
1.658577	-13.065000	25.520115
2.658577	-13.065000	39.949265
3.658577	-13.065000	0.639823
4.658577	-13.065000	42.527180
5.658577	-13.065000	0.639823
6.658577	-13.065000	0.685659
7.658577	-13.065000	0.639823
8.658577	-13.065000	0.639823
9.658577	-13.065000	1.344761
10.658577	-13.065000	59.431217
11.658577	-13.065000	58.292038
12.658577	-13.065000	55.154255
13.658577	-13.065000	251.595963
14.658577	-13.065000	32.611443
15.658577	-13.065000	52.917206
16.658577	-13.065000	43.465347
17.658577	-13.065000	36.054203
18.658577	-13.065000	0.965035
19.658577	-13.065000	0.639823
20.658577	-13.065000	0.639823
21.658577	-13.065000	0.639823
22.658577	-13.065000	14.745039
23.658577	-13.065000	0.639823
24.658577	-13.065000	59.750927
-39.341423	-12.065000	0.647884
-38.341423	-12.065000	0.639823
-37.341423	-12.065000	0.639823
-36.341423	-12.065000	0.639823
-35.341423	-12.065000	0.639823
-34.341423	-12.065000	0.639823
-33.341423	-12.065000	0.639823
-32.341423	-12.065000	0.639823
-31.341423	-12.065000	0.639823
-30.341423	-12.065000	0.639823
-29.341423	-12.065000	0.639823
-28.341423	-12.065000	0.639823
-27.341423	-12.065000	8.358376
-26.341423	-12.065000	0.639823
-25.341423	-12.065000	6.417473
-24.341423	-12.065000	2.643733
-23.341423	-12.065000	0.655541
-22.341423	-12.065000	0.711584
-21.341423	-12.065000	0.639823
-20.341423	-12.065000	72.142204
-19.341423	-12.065000	0.639823
-18.341423	-12.065000	0.639823
-17.341423	-12.065000	4.664156
-16.341423	-12.065000	733.309998
-15.341423	-12.065000	0.968491
-14.341423	-12.065000	58.182911
-13.341423	-12.065000	49.378143
-12.341423	-12.065000	30.487999
-11.341423	-12.065000	38.005146
-10.341423	-12.065000	0.639823
-9.341423	-12.065000	40.262962
-8.341423	-12.065000	0.639823
-7.341423	-12.065000	20.347689
-6.341423	-12.065000	20.323786
-5.341423	-12.065000	18.387764
-4.341423	-12.065000	39.808365
-3.341423	-12.065000	24.550102
-2.341423	-12.065000	17.982716
-1.341423	-12.065000	21.075798
-0.341423	-12.065000	25.137768
0.658577	-12.065000	27.190382
1.658577	-12.065000	41.750473
2.658577	-12.065000	38.635845
3.658577	-12.065000	43.229847
4.658577	-12.065000	46.295795
5.658577	-12.065000	38.329655
6.658577	-12.065000	40.753925
7.658577	-12.065000	0.643836
8.658577	-12.065000	0.815093
9.658577	-12.065000	57.472832
10.658577	-12.065000	59.381901
11.658577	-12.065000	57.020042
12.658577	-12.065000	48.164249
13.658577	-12.065000	0.639966
14.658577	-12.065000	5.859589
15.658577	-12.065000	0.952877
16.658577	-12.065000	44.975414
17.658577	-12.065000	3.443817
18.658577	-12.065000	9.404369
19.658577	-12.065000	0.639823
20.658577	-12.065000	0.639823
21.658577	-12.065000	1.158885
22.658577	-12.065000	0.639823
23.658577	-12.065000	13.284415
24.658577	-12.065000	29.870888
-39.341423	-11.065000	0.639823
-38.341423	-11.065000	0.639823
-37.341423	-11.065000	0.639823
-36.341423	-11.065000	0.639823
-35.341423	-11.065000	0.639823
-34.341423	-11.065000	0.639823
-33.341423	-11.065000	0.639823
-32.341423	-11.065000	0.639823
-31.341423	-11.065000	0.639823
-30.341423	-11.065000	0.639823
-29.341423	-11.065000	0.639823
-28.341423	-11.065000	0.639823
-27.341423	-11.065000	0.639823
-26.341423	-11.065000	0.639823
-25.341423	-11.065000	0.715089
-24.341423	-11.065000	0.643349
-23.341423	-11.065000	12.491814
-22.341423	-11.065000	33.449615
-21.341423	-11.065000	46.978054
-20.341423	-11.065000	19.959585
-19.341423	-11.065000	27.830639
-18.341423	-11.065000	0.639823
-17.341423	-11.065000	0.639823
-16.341423	-11.065000	0.639823
-15.341423	-11.065000	18.931704
-14.341423	-11.065000	46.340549
-13.341423	-11.065000	54.151791
-12.341423	-11.065000	18.890196
-11.341423	-11.065000	0.650914
-10.341423	-11.065000	16.904209
-9.341423	-11.065000	48.531765
-8.341423	-11.065000	47.135353
-7.341423	-11.065000	24.112514
-6.341423	-11.065000	17.775999
-5.341423	-11.065000	37.792740
-4.341423	-11.065000	39.720688
-3.341423	-11.065000	39.048061
-2.341423	-11.065000	39.833088
-1.341423	-11.065000	31.000204
-0.341423	-11.065000	35.990395
0.658577	-11.065000	24.039488
1.658577	-11.065000	23.935085
2.658577	-11.065000	17.521862
3.658577	-11.065000	47.816109
4.658577	-11.065000	45.484142
5.658577	-11.065000	0.639823
6.658577	-11.065000	426.016663
7.658577	-11.065000	0.639823
8.658577	-11.065000	0.697153
9.658577	-11.065000	53.803543
10.658577	-11.065000	62.183372
11.658577	-11.065000	56.592228
12.658577	-11.065000	55.324417
13.658577	-11.065000	7.862239
14.658577	-11.065000	0.639823
15.658577	-11.065000	32.731907
16.658577	-11.065000	41.191776
17.658577	-11.065000	32.511780
18.658577	-11.065000	0.951299
19.658577	-11.065000	0.644237
20.658577	-11.065000	11.926058
21.658577	-11.065000	42.934681
22.658577	-11.065000	0.834754
23.658577	-11.065000	0.639823
24.658577	-11.065000	0.639823
-39.341423	-10.065000	0.639823
-38.341423	-10.065000	0.639823
-37.341423	-10.065000	0.639823
-36.341423	-10.065000	0.639823
-35.341423	-10.065000	0.639823
-34.341423	-10.065000	0.639823
-33.341423	-10.065000	0.639823
-32.341423	-10.065000	0.639823
-31.341423	-10.065000	0.639823
-30.341423	-10.065000	0.648681
-29.341423	-10.065000	0.639823
-28.341423	-10.065000	0.639823
-27.341423	-10.065000	0.639823
-26.341423	-10.065000	0.639823
-25.341423	-10.065000	0.639823
-24.341423	-10.065000	4.353713
-23.341423	-10.065000	0.686414
-22.341423	-10.065000	53.877190
-21.341423	-10.065000	34.104832
-20.341423	-10.065000	37.712490
-19.341423	-10.065000	50.107014
-18.341423	-10.065000	0.639823
-17.341423	-10.065000	28.150940
-16.341423	-10.065000	25.106894
-15.341423	-10.065000	12.688176
-14.341423	-10.065000	40.644722
-13.341423	-10.065000	43.804317
-12.341423	-10.065000	0.641072
-11.341423	-10.065000	8.047802
-10.341423	-10.065000	31.340908
-9.341423	-10.065000	56.105865
-8.341423	-10.065000	37.259659
-7.341423	-10.065000	0.894499
-6.341423	-10.065000	47.746727
-5.341423	-10.065000	48.737755
-4.341423	-10.065000	0.639823
-3.341423	-10.065000	55.271965
-2.341423	-10.065000	0.639823
-1.341423	-10.065000	36.630730
-0.341423	-10.065000	22.091406
0.658577	-10.065000	10.229588
1.658577	-10.065000	21.601145
2.658577	-10.065000	0.823759
3.658577	-10.065000	19.968746
4.658577	-10.065000	42.397568
5.658577	-10.065000	0.639823
6.658577	-10.065000	0.639823
7.658577	-10.065000	0.639823
8.658577	-10.065000	56.070412
9.658577	-10.065000	59.955864
10.658577	-10.065000	59.870892
11.658577	-10.065000	64.413628
12.658577	-10.065000	57.168129
13.658577	-10.065000	25.506559
14.658577	-10.065000	18.158627
15.658577	-10.065000	12.573468
16.658577	-10.065000	9.755476
17.658577	-10.065000	21.295835
18.658577	-10.065000	11.293757
19.658577	-10.065000	0.639823
20.658577	-10.065000	540.251953
21.658577	-10.065000	40.345650
22.658577	-10.065000	31.556290
23.658577	-10.065000	0.639823
24.658577	-10.065000	48.162792
-39.341423	-9.065000	0.639823
-38.341423	-9.065000	0.639823
-37.341423	-9.065000	0.639823
-36.341423	-9.065000	0.639823
-35.341423	-9.065000	0.639823
-34.341423	-9.065000	0.639823
-33.341423	-9.065000	0.639823
-32.341423	-9.065000	0.639823
-31.341423	-9.065000	0.639823
-30.341423	-9.065000	0.639823
-29.341423	-9.065000	0.639823
-28.341423	-9.065000	0.639823
-27.341423	-9.065000	0.639823
-26.341423	-9.065000	0.639823
-25.341423	-9.065000	0.830300
-24.341423	-9.065000	56.696598
-23.341423	-9.065000	57.160915
-22.341423	-9.065000	63.083424
-21.341423	-9.065000	58.036362
-20.341423	-9.065000	56.753815
-19.341423	-9.065000	39.735092
-18.341423	-9.065000	47.636665
-17.341423	-9.065000	46.439941
-16.341423	-9.065000	0.639823
-15.341423	-9.065000	0.639823
-14.341423	-9.065000	0.639823
-13.341423	-9.065000	30.846092
-12.341423	-9.065000	0.639823
-11.341423	-9.065000	0.639823
-10.341423	-9.065000	0.639823
-9.341423	-9.065000	0.802718
-8.341423	-9.065000	37.183308
-7.341423	-9.065000	15.155159
-6.341423	-9.065000	93.861313
-5.341423	-9.065000	147.323639
-4.341423	-9.065000	0.639823
-3.341423	-9.065000	0.639823
-2.341423	-9.065000	12.722142
-1.341423	-9.065000	0.639823
-0.341423	-9.065000	19.572691
0.658577	-9.065000	0.774463
1.658577	-9.065000	49.679119
2.658577	-9.065000	48.503201
3.658577	-9.065000	42.995064
4.658577	-9.065000	0.639823
5.658577	-9.065000	110.784744
6.658577	-9.065000	85.814049
7.658577	-9.065000	0.639823
8.658577	-9.065000	52.865425
9.658577	-9.065000	58.973980
10.658577	-9.065000	58.538097
11.658577	-9.065000	58.331684
12.658577	-9.065000	47.300655
13.658577	-9.065000	34.560368
14.658577	-9.065000	42.305370
15.658577	-9.065000	55.390495
16.658577	-9.065000	10.561245
17.658577	-9.065000	0.639823
18.658577	-9.065000	31.417910
19.658577	-9.065000	0.639823
20.658577	-9.065000	31.001827
21.658577	-9.065000	0.639823
22.658577	-9.065000	24.758810
23.658577	-9.065000	0.817560
24.658577	-9.065000	50.987488
-39.341423	-8.065000	0.639823
-38.341423	-8.065000	0.639823
-37.341423	-8.065000	0.639823
-36.341423	-8.065000	0.639823
-35.341423	-8.065000	0.639823
-34.341423	-8.065000	0.639823
-33.341423	-8.065000	0.639823
-32.341423	-8.065000	0.639823
-31.341423	-8.065000	0.639823
-30.341423	-8.065000	0.639823
-29.341423	-8.065000	0.639823
-28.341423	-8.065000	0.639823
-27.341423	-8.065000	0.639823
-26.341423	-8.065000	0.639823
-25.341423	-8.065000	0.639823
-24.341423	-8.065000	19.111902
-23.341423	-8.065000	59.134705
-22.341423	-8.065000	57.966476
-21.341423	-8.065000	43.954136
-20.341423	-8.065000	41.167740
-19.341423	-8.065000	33.603912
-18.341423	-8.065000	38.056587
-17.341423	-8.065000	0.639823
-16.341423	-8.065000	0.639823
-15.341423	-8.065000	25.900579
-14.341423	-8.065000	15.153780
-13.341423	-8.065000	9.372347
-12.341423	-8.065000	5.391383
-11.341423	-8.065000	0.639823
-10.341423	-8.065000	2.404396
-9.341423	-8.065000	0.639823
-8.341423	-8.065000	0.665086
-7.341423	-8.065000	53.927231
-6.341423	-8.065000	0.835546
-5.341423	-8.065000	10.858521
-4.341423	-8.065000	0.639823
-3.341423	-8.065000	21.180431
-2.341423	-8.065000	38.326134
-1.341423	-8.065000	56.842178
-0.341423	-8.065000	50.091824
0.658577	-8.065000	45.519585
1.658577	-8.065000	54.009445
2.658577	-8.065000	51.618946
3.658577	-8.065000	48.478615
4.658577	-8.065000	0.639823
5.658577	-8.065000	0.639823
6.658577	-8.065000	47.583035
7.658577	-8.065000	13.992456
8.658577	-8.065000	58.114422
9.658577	-8.065000	61.702000
10.658577	-8.065000	64.611572
11.658577	-8.065000	60.049953
12.658577	-8.065000	56.751858
13.658577	-8.065000	0.639823
14.658577	-8.065000	0.639823
15.658577	-8.065000	37.345306
16.658577	-8.065000	0.639823
17.658577	-8.065000	0.639823
18.658577	-8.065000	27.791477
19.658577	-8.065000	0.898757
20.658577	-8.065000	40.374855
21.658577	-8.065000	26.564167
22.658577	-8.065000	16.438444
23.658577	-8.065000	0.763505
24.658577	-8.065000	54.264442
-39.341423	-7.065000	0.639823
-38.341423	-7.065000	0.639823
-37.341423	-7.065000	0.639823
-36.341423	-7.065000	0.639823
-35.341423	-7.065000	0.639823
-34.341423	-7.065000	0.639823
-33.341423	-7.065000	0.639823
-32.341423	-7.065000	0.639823
-31.341423	-7.065000	0.639823
-30.341423	-7.065000	0.639823
-29.341423	-7.065000	0.639823
-28.341423	-7.065000	0.639823
-27.341423	-7.065000	39.765537
-26.341423	-7.065000	0.639823
-25.341423	-7.065000	0.639823
-24.341423	-7.065000	16.588181
-23.341423	-7.065000	46.405918
-22.341423	-7.065000	52.438019
-21.341423	-7.065000	17.271311
-20.341423	-7.065000	0.780403
-19.341423	-7.065000	0.639823
-18.341423	-7.065000	42.600639
-17.341423	-7.065000	0.639823
-16.341423	-7.065000	0.639823
-15.341423	-7.065000	9.902206
-14.341423	-7.065000	0.639823
-13.341423	-7.065000	15.002686
-12.341423	-7.065000	3.139144
-11.341423	-7.065000	0.639823
-10.341423	-7.065000	0.639823
-9.341423	-7.065000	0.639823
-8.341423	-7.065000	0.639823
-7.341423	-7.065000	54.253334
-6.341423	-7.065000	54.159435
-5.341423	-7.065000	58.830238
-4.341423	-7.065000	59.842335
-3.341423	-7.065000	34.305874
-2.341423	-7.065000	41.163944
-1.341423	-7.065000	61.390606
-0.341423	-7.065000	59.597435
0.658577	-7.065000	62.671169
1.658577	-7.065000	55.439304
2.658577	-7.065000	52.075562
3.658577	-7.065000	32.945942
4.658577	-7.065000	5.153769
5.658577	-7.065000	5.931814
6.658577	-7.065000	45.826511
7.658577	-7.065000	52.008854
8.658577	-7.065000	62.146141
9.658577	-7.065000	61.411221
10.658577	-7.065000	45.030064
11.658577	-7.065000	55.567471
12.658577	-7.065000	53.731865
13.658577	-7.065000	29.680965
14.658577	-7.065000	0.639823
15.658577	-7.065000	0.639823
16.658577	-7.065000	0.639823
17.658577	-7.065000	13.039813
18.658577	-7.065000	0.710384
19.658577	-7.065000	0.875972
20.658577	-7.065000	0.639823
21.658577	-7.065000	28.493071
22.658577	-7.065000	0.700343
23.658577	-7.065000	0.800635
24.658577	-7.065000	41.583790
-39.341423	-6.065000	0.639823
-38.341423	-6.065000	0.639823
-37.341423	-6.065000	0.639823
-36.341423	-6.065000	0.639823
-35.341423	-6.065000	0.639823
-34.341423	-6.065000	0.639823
-33.341423	-6.065000	0.639823
-32.341423	-6.065000	0.639823
-31.341423	-6.065000	0.639823
-30.341423	-6.065000	0.639823
-29.341423	-6.065000	0.639823
-28.341423	-6.065000	0.639823
-27.341423	-6.065000	34.421127
-26.341423	-6.065000	0.663956
-25.341423	-6.065000	0.639823
-24.341423	-6.065000	0.639823
-23.341423	-6.065000	15.225246
-22.341423	-6.065000	0.639823
-21.341423	-6.065000	73.048149
-20.341423	-6.065000	45.945431
-19.341423	-6.065000	56.239594
-18.341423	-6.065000	56.821201
-17.341423	-6.065000	51.608845
-16.341423	-6.065000	0.639823
-15.341423	-6.065000	0.639823
-14.341423	-6.065000	0.639823
-13.341423	-6.065000	0.639823
-12.341423	-6.065000	0.639823
-11.341423	-6.065000	0.639823
-10.341423	-6.065000	0.639823
-9.341423	-6.065000	0.639823
-8.341423	-6.065000	0.639823
-7.341423	-6.065000	12.114015
-6.341423	-6.065000	29.512842
-5.341423	-6.065000	51.804779
-4.341423	-6.065000	60.457142
-3.341423	-6.065000	55.361057
-2.341423	-6.065000	52.653763
-1.341423	-6.065000	58.431881
-0.341423	-6.065000	60.102062
0.658577	-6.065000	60.721924
1.658577	-6.065000	59.405796
2.658577	-6.065000	44.953648
3.658577	-6.065000	0.639823
4.658577	-6.065000	0.639823
5.658577	-6.065000	100.173958
6.658577	-6.065000	30.545357
7.658577	-6.065000	36.314304
8.658577	-6.065000	56.737743
9.658577	-6.065000	54.366528
10.658577	-6.065000	0.639823
11.658577	-6.065000	13.382433
12.658577	-6.065000	5.797733
13.658577	-6.065000	0.639823
14.658577	-6.065000	8.017793
15.658577	-6.065000	8.751521
16.658577	-6.065000	0.639823
17.658577	-6.065000	0.700065
18.658577	-6.065000	0.713773
19.658577	-6.065000	0.639823
20.658577	-6.065000	22.907032
21.658577	-6.065000	8.649011
22.658577	-6.065000	0.639823
23.658577	-6.065000	144.599411
24.658577	-6.065000	0.639941
-39.341423	-5.065000	54.346863
-38.341423	-5.065000	40.897526
-37.341423	-5.065000	0.639823
-36.341423	-5.065000	0.639823
-35.341423	-5.065000	0.639823
-34.341423	-5.065000	0.639823
-33.341423	-5.065000	0.639823
-32.341423	-5.065000	0.639823
-31.341423	-5.065000	0.639823
-30.341423	-5.065000	0.639823
-29.341423	-5.065000	0.639823
-28.341423	-5.065000	0.639823
-27.341423	-5.065000	0.673543
-26.341423	-5.065000	0.639823
-25.341423	-5.065000	0.639823
-24.341423	-5.065000	0.639823
-23.341423	-5.065000	0.642243
-22.341423	-5.065000	0.639823
-21.341423	-5.065000	10.744151
-20.341423	-5.065000	54.696808
-19.341423	-5.065000	62.336697
-18.341423	-5.065000	60.557686
-17.341423	-5.065000	53.169827
-16.341423	-5.065000	15.545181
-15.341423	-5.065000	0.639823
-14.341423	-5.065000	0.639823
-13.341423	-5.065000	0.639823
-12.341423	-5.065000	0.639823
-11.341423	-5.065000	0.639823
-10.341423	-5.065000	0.639823
-9.341423	-5.065000	0.639823
-8.341423	-5.065000	0.639823
-7.341423	-5.065000	0.639823
-6.341423	-5.065000	0.639823
-5.341423	-5.065000	35.090340
-4.341423	-5.065000	63.285633
-3.341423	-5.065000	61.135620
-2.341423	-5.065000	55.243141
-1.341423	-5.065000	53.617146
-0.341423	-5.065000	45.501553
0.658577	-5.065000	45.894875
1.658577	-5.065000	54.618561
2.658577	-5.065000	56.982086
3.658577	-5.065000	56.039837
4.658577	-5.065000	23.961052
5.658577	-5.065000	1.909719
6.658577	-5.065000	27.697088
7.658577	-5.065000	28.938807
8.658577	-5.065000	53.787960
9.658577	-5.065000	48.147167
10.658577	-5.065000	0.639823
11.658577	-5.065000	17.816647
12.658577	-5.065000	0.639823
13.658577	-5.065000	0.639823
14.658577	-5.065000	0.639823
15.658577	-5.065000	0.639823
16.658577	-5.065000	2595.124023
17.658577	-5.065000	33.257065
18.658577	-5.065000	0.669448
19.658577	-5.065000	8.427473
20.658577	-5.065000	0.639823
21.658577	-5.065000	62.055763
22.658577	-5.065000	53.676197
23.658577	-5.065000	0.639823
24.658577	-5.065000	0.639823
-39.341423	-4.065000	60.550468
-38.341423	-4.065000	55.066978
-37.341423	-4.065000	0.645203
-36.341423	-4.065000	0.639823
-35.341423	-4.065000	0.639823
-34.341423	-4.065000	0.639823
-33.341423	-4.065000	0.639823
-32.341423	-4.065000	0.720501
-31.341423	-4.065000	46.274185
-30.341423	-4.065000	0.798792
-29.341423	-4.065000	49.378105
-28.341423	-4.065000	38.842533
-27.341423	-4.065000	0.639823
-26.341423	-4.065000	0.639823
-25.341423	-4.065000	0.639823
-24.341423	-4.065000	0.639823
-23.341423	-4.065000	31.693541
-22.341423	-4.065000	0.805147
-21.341423	-4.065000	0.639823
-20.341423	-4.065000	41.112595
-19.341423	-4.065000	42.492519
-18.341423	-4.065000	49.557415
-17.341423	-4.065000	54.779938
-16.341423	-4.065000	47.803535
-15.341423	-4.065000	0.639823
-14.341423	-4.065000	0.639823
-13.341423	-4.065000	0.639823
-12.341423	-4.065000	0.639823
-11.341423	-4.065000	16.864498
-10.341423	-4.065000	0.639823
-9.341423	-4.065000	10.505325
-8.341423	-4.065000	5.742011
-7.341423	-4.065000	0.639823
-6.341423	-4.065000	7.161336
-5.341423	-4.065000	0.639823
-4.341423	-4.065000	57.001755
-3.341423	-4.065000	55.839069
-2.341423	-4.065000	56.325207
-1.341423	-4.065000	52.344204
-0.341423	-4.065000	40.903973
0.658577	-4.065000	39.375565
1.658577	-4.065000	49.069489
2.658577	-4.065000	56.402229
3.658577	-4.065000	56.199886
4.658577	-4.065000	49.819141
5.658577	-4.065000	41.585239
6.658577	-4.065000	0.836378
7.658577	-4.065000	36.770042
8.658577	-4.065000	0.639852
9.658577	-4.065000	0.697446
10.658577	-4.065000	0.639823
11.658577	-4.065000	28.512695
12.658577	-4.065000	0.639823
13.658577	-4.065000	0.639823
14.658577	-4.065000	0.639823
15.658577	-4.065000	47.581726
16.658577	-4.065000	37.775032
17.658577	-4.065000	0.639823
18.658577	-4.065000	0.639823
19.658577	-4.065000	10.481881
20.658577	-4.065000	25.562695
21.658577	-4.065000	16.826042
22.658577	-4.065000	0.778152
23.658577	-4.065000	20.976194
24.658577	-4.065000	0.639823
-39.341423	-3.065000	64.729340
-38.341423	-3.065000	53.741764
-37.341423	-3.065000	26.538774
-36.341423	-3.065000	0.667161
-35.341423	-3.065000	0.639823
-34.341423	-3.065000	0.639823
-33.341423	-3.065000	5.022307
-32.341423	-3.065000	54.646381
-31.341423	-3.065000	52.247227
-30.341423	-3.065000	0.639823
-29.341423	-3.065000	53.263279
-28.341423	-3.065000	53.942348
-27.341423	-3.065000	45.893887
-26.341423	-3.065000	0.639823
-25.341423	-3.065000	1.326182
-24.341423	-3.065000	0.639823
-23.341423	-3.065000	0.750533
-22.341423	-3.065000	0.739669
-21.341423	-3.065000	0.639823
-20.341423	-3.065000	42.927116
-19.341423	-3.065000	35.836906
-18.341423	-3.065000	24.705179
-17.341423	-3.065000	28.963049
-16.341423	-3.065000	49.700031
-15.341423	-3.065000	1.912463
-14.341423	-3.065000	0.639823
-13.341423	-3.065000	0.639823
-12.341423	-3.065000	11.025564
-11.341423	-3.065000	15.709370
-10.341423	-3.065000	30.200035
-9.341423	-3.065000	25.618235
-8.341423	-3.065000	12.510404
-7.341423	-3.065000	38.846874
-6.341423	-3.065000	26.981546
-5.341423	-3.065000	21.218182
-4.341423	-3.065000	21.059479
-3.341423	-3.065000	55.893345
-2.341423	-3.065000	0.935123
-1.341423	-3.065000	0.639823
-0.341423	-3.065000	0.639823
0.658577	-3.065000	0.639823
1.658577	-3.065000	48.285885
2.658577	-3.065000	56.268063
3.658577	-3.065000	27.168673
4.658577	-3.065000	57.488106
5.658577	-3.065000	51.738491
6.658577	-3.065000	7.747249
7.658577	-3.065000	0.639823
8.658577	-3.065000	5.524914
9.658577	-3.065000	0.639823
10.658577	-3.065000	42.551208
11.658577	-3.065000	0.786425
12.658577	-3.065000	0.639823
13.658577	-3.065000	0.639823
14.658577	-3.065000	0.823060
15.658577	-3.065000	0.747555
16.658577	-3.065000	0.639823
17.658577	-3.065000	0.639823
18.658577	-3.065000	1.147981
19.658577	-3.065000	0.835378
20.658577	-3.065000	31.933237
21.658577	-3.065000	33.913670
22.658577	-3.065000	55.268738
23.658577	-3.065000	24.900959
24.658577	-3.065000	0.639823
-39.341423	-2.065000	59.276161
-38.341423	-2.065000	46.243439
-37.341423	-2.065000	0.639823
-36.341423	-2.065000	52.498512
-35.341423	-2.065000	50.721462
-34.341423	-2.065000	47.162567
-33.341423	-2.065000	54.611492
-32.341423	-2.065000	57.274384
-31.341423	-2.065000	39.033546
-30.341423	-2.065000	0.661362
-29.341423	-2.065000	55.055977
-28.341423	-2.065000	60.023182
-27.341423	-2.065000	52.428852
-26.341423	-2.065000	0.639823
-25.341423	-2.065000	0.639823
-24.341423	-2.065000	0.639823
-23.341423	-2.065000	0.639823
-22.341423	-2.065000	0.639823
-21.341423	-2.065000	28.434431
-20.341423	-2.065000	44.943256
-19.341423	-2.065000	38.420982
-18.341423	-2.065000	55.527798
-17.341423	-2.065000	55.303154
-16.341423	-2.065000	36.602955
-15.341423	-2.065000	0.639823
-14.341423	-2.065000	0.639823
-13.341423	-2.065000	0.639823
-12.341423	-2.065000	3.508526
-11.341423	-2.065000	10.948324
-10.341423	-2.065000	0.639823
-9.341423	-2.065000	16.786144
-8.341423	-2.065000	21.864737
-7.341423	-2.065000	27.671600
-6.341423	-2.065000	15.005995
-5.341423	-2.065000	6.424792
-4.341423	-2.065000	0.639823
-3.341423	-2.065000	0.639823
-2.341423	-2.065000	0.639823
-1.341423	-2.065000	0.639823
-0.341423	-2.065000	0.639823
0.658577	-2.065000	0.639823
1.658577	-2.065000	17.666826
2.658577	-2.065000	55.475216
3.658577	-2.065000	44.507954
4.658577	-2.065000	50.330845
5.658577	-2.065000	20.320732
6.658577	-2.065000	0.639823
7.658577	-2.065000	17.364382
8.658577	-2.065000	0.809680
9.658577	-2.065000	48.125126
10.658577	-2.065000	36.484684
11.658577	-2.065000	15.304439
12.658577	-2.065000	0.639823
13.658577	-2.065000	0.639823
14.658577	-2.065000	0.639823
15.658577	-2.065000	0.639823
16.658577	-2.065000	8.935324
17.658577	-2.065000	41.710136
18.658577	-2.065000	9.342736
19.658577	-2.065000	0.761210
20.658577	-2.065000	0.639823
21.658577	-2.065000	58.268501
22.658577	-2.065000	53.366524
23.658577	-2.065000	0.670537
24.658577	-2.065000	0.688478
-39.341423	-1.065000	58.392960
-38.341423	-1.065000	57.004902
-37.341423	-1.065000	47.401188
-36.341423	-1.065000	42.161247
-35.341423	-1.065000	38.760006
-34.341423	-1.065000	0.639823
-33.341423	-1.065000	0.687415
-32.341423	-1.065000	0.639823
-31.341423	-1.065000	0.672823
-30.341423	-1.065000	40.427334
-29.341423	-1.065000	57.190941
-28.341423	-1.065000	59.025524
-27.341423	-1.065000	53.928825
-26.341423	-1.065000	41.246006
-25.341423	-1.065000	0.639823
-24.341423	-1.065000	0.639823
-23.341423	-1.065000	37.397263
-22.341423	-1.065000	0.974135
-21.341423	-1.065000	42.193306
-20.341423	-1.065000	49.361603
-19.341423	-1.065000	53.650703
-18.341423	-1.065000	48.627636
-17.341423	-1.065000	424.544769
-16.341423	-1.065000	0.639823
-15.341423	-1.065000	0.639823
-14.341423	-1.065000	0.639823
-13.341423	-1.065000	4.977332
-12.341423	-1.065000	1.099330
-11.341423	-1.065000	0.639823
-10.341423	-1.065000	0.999602
-9.341423	-1.065000	27.010565
-8.341423	-1.065000	5.724064
-7.341423	-1.065000	28.990078
-6.341423	-1.065000	11.252446
-5.341423	-1.065000	0.639823
-4.341423	-1.065000	12.840170
-3.341423	-1.065000	0.838455
-2.341423	-1.065000	0.639823
-1.341423	-1.065000	0.639823
-0.341423	-1.065000	0.639823
0.658577	-1.065000	0.639823
1.658577	-1.065000	0.639823
2.658577	-1.065000	33.391136
3.658577	-1.065000	45.996872
4.658577	-1.065000	0.966835
5.658577	-1.065000	7.026091
6.658577	-1.065000	44.902199
7.658577	-1.065000	29.189764
8.658577	-1.065000	45.584568
9.658577	-1.065000	30.713884
10.658577	-1.065000	37.468430
11.658577	-1.065000	0.866340
12.658577	-1.065000	0.639823
13.658577	-1.065000	0.639823
14.658577	-1.065000	23.691792
15.658577	-1.065000	0.639823
16.658577	-1.065000	15.362884
17.658577	-1.065000	12.383398
18.658577	-1.065000	49.854202
19.658577	-1.065000	7.563375
20.658577	-1.065000	37.698208
21.658577	-1.065000	0.690677
22.658577	-1.065000	47.716167
23.658577	-1.065000	69.096069
24.658577	-1.065000	45.222992
-39.341423	-0.065000	0.639823
-38.341423	-0.065000	21.025135
-37.341423	-0.065000	0.831758
-36.341423	-0.065000	54.523727
-35.341423	-0.065000	0.639823
-34.341423	-0.065000	35.538143
-33.341423	-0.065000	35.717899
-32.341423	-0.065000	0.639823
-31.341423	-0.065000	0.639823
-30.341423	-0.065000	71.861336
-29.341423	-0.065000	56.399914
-28.341423	-0.065000	59.529427
-27.341423	-0.065000	58.799088
-26.341423	-0.065000	52.203793
-25.341423	-0.065000	0.639823
-24.341423	-0.065000	0.639823
-23.341423	-0.065000	0.639823
-22.341423	-0.065000	50.069080
-21.341423	-0.065000	54.646908
-20.341423	-0.065000	50.354126
-19.341423	-0.065000	16.008961
-18.341423	-0.065000	21.295549
-17.341423	-0.065000	42.482918
-16.341423	-0.065000	0.640009
-15.341423	-0.065000	43.510059
-14.341423	-0.065000	0.639823
-13.341423	-0.065000	0.639823
-12.341423	-0.065000	0.639823
-11.341423	-0.065000	0.639823
-10.341423	-0.065000	4.148513
-9.341423	-0.065000	29.539068
-8.341423	-0.065000	11.635563
-7.341423	-0.065000	11.021756
-6.341423	-0.065000	20.995092
-5.341423	-0.065000	0.639823
-4.341423	-0.065000	0.644615
-3.341423	-0.065000	0.726934
-2.341423	-0.065000	0.639823
-1.341423	-0.065000	0.639823
-0.341423	-0.065000	0.639823
0.658577	-0.065000	0.639823
1.658577	-0.065000	0.662103
2.658577	-0.065000	35.432705
3.658577	-0.065000	0.639823
4.658577	-0.065000	0.639823
5.658577	-0.065000	7.582173
6.658577	-0.065000	32.745125
7.658577	-0.065000	3.082922
8.658577	-0.065000	30.593845
9.658577	-0.065000	0.639823
10.658577	-0.065000	0.639823
11.658577	-0.065000	0.639823
12.658577	-0.065000	0.639823
13.658577	-0.065000	0.639823
14.658577	-0.065000	0.639823
15.658577	-0.065000	0.639823
16.658577	-0.065000	0.639823
17.658577	-0.065000	7.763026
18.658577	-0.065000	54.413357
19.658577	-0.065000	49.621296
20.658577	-0.065000	15.741733
21.658577	-0.065000	6.564963
22.658577	-0.065000	0.639823
23.658577	-0.065000	6.733864
24.658577	-0.065000	37.094181
-39.341423	0.935000	79.538269
-38.341423	0.935000	2206.369873
-37.341423	0.935000	84.250885
-36.341423	0.935000	92.423477
-35.341423	0.935000	37.445587
-34.341423	0.935000	33.575474
-33.341423	0.935000	30.656393
-32.341423	0.935000	46.267063
-31.341423	0.935000	0.639823
-30.341423	0.935000	46.576424
-29.341423	0.935000	58.152809
-28.341423	0.935000	64.865799
-27.341423	0.935000	61.966816
-26.341423	0.935000	47.375969
-25.341423	0.935000	0.639823
-24.341423	0.935000	2.352677
-23.341423	0.935000	0.639823
-22.341423	0.935000	0.639823
-21.341423	0.935000	0.639823
-20.341423	0.935000	35.135910
-19.341423	0.935000	20.842142
-18.341423	0.935000	37.917850
-17.341423	0.935000	49.718758
-16.341423	0.935000	47.269844
-15.341423	0.935000	47.948929
-14.341423	0.935000	0.639823
-13.341423	0.935000	0.639823
-12.341423	0.935000	0.639823
-11.341423	0.935000	0.639823
-10.341423	0.935000	0.639823
-9.341423	0.935000	13.392735
-8.341423	0.935000	12.276689
-7.341423	0.935000	27.849400
-6.341423	0.935000	13.953590
-5.341423	0.935000	0.639823
-4.341423	0.935000	0.639823
-3.341423	0.935000	35.933971
-2.341423	0.935000	0.639823
-1.341423	0.935000	0.639823
-0.341423	0.935000	0.639823
0.658577	0.935000	0.639823
1.658577	0.935000	46.887321
2.658577	0.935000	36.958401
3.658577	0.935000	0.811637
4.658577	0.935000	10.719913
5.658577	0.935000	0.639823
6.658577	0.935000	0.639823
7.658577	0.935000	0.639823
8.658577	0.935000	0.639823
9.658577	0.935000	0.666642
10.658577	0.935000	0.639823
11.658577	0.935000	0.639823
12.658577	0.935000	0.639823
13.658577	0.935000	0.639823
14.658577	0.935000	12.445601
15.658577	0.935000	4.632663
16.658577	0.935000	20.274595
17.658577	0.935000	9.872496
18.658577	0.935000	0.710434
19.658577	0.935000	32.823303
20.658577	0.935000	0.639823
21.658577	0.935000	0.639823
22.658577	0.935000	0.639823
23.658577	0.935000	4.432732
24.658577	0.935000	0.672189
-39.341423	1.935000	104.782921
-38.341423	1.935000	0.754041
-37.341423	1.935000	0.639823
-36.341423	1.935000	26.304939
-35.341423	1.935000	0.639823
-34.341423	1.935000	0.639823
-33.341423	1.935000	23.221312
-32.341423	1.935000	0.639823
-31.341423	1.935000	27.324661
-30.341423	1.935000	4.076688
-29.341423	1.935000	47.614601
-28.341423	1.935000	62.224335
-27.341423	1.935000	53.775673
-26.341423	1.935000	0.639823
-25.341423	1.935000	0.639823
-24.341423	1.935000	34.461540
-23.341423	1.935000	18.479349
-22.341423	1.935000	0.639823
-21.341423	1.935000	0.639823
-20.341423	1.935000	0.639823
-19.341423	1.935000	52.509933
-18.341423	1.935000	56.172344
-17.341423	1.935000	62.608883
-16.341423	1.935000	57.507645
-15.341423	1.935000	46.148785
-14.341423	1.935000	0.639823
-13.341423	1.935000	0.639823
-12.341423	1.935000	0.639823
-11.341423	1.935000	0.639823
-10.341423	1.935000	0.639823
-9.341423	1.935000	0.639823
-8.341423	1.935000	7.839673
-7.341423	1.935000	18.607771
-6.341423	1.935000	6.666864
-5.341423	1.935000	0.639823
-4.341423	1.935000	0.639823
-3.341423	1.935000	0.639823
-2.341423	1.935000	0.639823
-1.341423	1.935000	0.639823
-0.341423	1.935000	0.639823
0.658577	1.935000	0.639823
1.658577	1.935000	48.664658
2.658577	1.935000	0.801311
3.658577	1.935000	0.639823
4.658577	1.935000	0.639823
5.658577	1.935000	0.639823
6.658577	1.935000	0.639823
7.658577	1.935000	1.004192
8.658577	1.935000	34.830917
9.658577	1.935000	0.639823
10.658577	1.935000	0.639823
11.658577	1.935000	0.639823
12.658577	1.935000	0.639823
13.658577	1.935000	0.639823
14.658577	1.935000	0.639823
15.658577	1.935000	0.639823
16.658577	1.935000	10.275060
17.658577	1.935000	11.879816
18.658577	1.935000	46.268192
19.658577	1.935000	35.326481
20.658577	1.935000	0.639823
21.658577	1.935000	0.639823
22.658577	1.935000	0.639823
23.658577	1.935000	0.639823
24.658577	1.935000	0.639823
-39.341423	2.935000	47.010384
-38.341423	2.935000	27.950436
-37.341423	2.935000	0.639823
-36.341423	2.935000	41.230289
-35.341423	2.935000	50.407745
-34.341423	2.935000	0.798180
-33.341423	2.935000	68.447655
-32.341423	2.935000	14.644452
-31.341423	2.935000	0.639823
-30.341423	2.935000	0.639823
-29.341423	2.935000	0.639823
-28.341423	2.935000	0.670088
-27.341423	2.935000	0.640229
-26.341423	2.935000	0.639823
-25.341423	2.935000	0.639823
-24.341423	2.935000	33.899796
-23.341423	2.935000	33.336948
-22.341423	2.935000	17.306347
-21.341423	2.935000	0.639823
-20.341423	2.935000	0.780412
-19.341423	2.935000	54.659252
-18.341423	2.935000	55.279472
-17.341423	2.935000	57.913013
-16.341423	2.935000	55.533051
-15.341423	2.935000	56.175243
-14.341423	2.935000	50.008820
-13.341423	2.935000	42.909149
-12.341423	2.935000	0.639823
-11.341423	2.935000	0.639823
-10.341423	2.935000	0.639823
-9.341423	2.935000	0.639823
-8.341423	2.935000	0.639823
-7.341423	2.935000	13.523936
-6.341423	2.935000	1.467579
-5.341423	2.935000	0.639823
-4.341423	2.935000	0.639823
-3.341423	2.935000	0.639823
-2.341423	2.935000	0.639823
-1.341423	2.935000	0.639823
-0.341423	2.935000	0.639823
0.658577	2.935000	0.639823
1.658577	2.935000	0.639823
2.658577	2.935000	7.906540
3.658577	2.935000	30.964989
4.658577	2.935000	22.273079
5.658577	2.935000	0.639823
6.658577	2.935000	54.514000
7.658577	2.935000	51.227631
8.658577	2.935000	0.639823
9.658577	2.935000	0.639823
10.658577	2.935000	0.639823
11.658577	2.935000	0.639823
12.658577	2.935000	0.639823
13.658577	2.935000	0.639823
14.658577	2.935000	0.639823
15.658577	2.935000	0.639823
16.658577	2.935000	20.098412
17.658577	2.935000	0.639823
18.658577	2.935000	43.261662
19.658577	2.935000	54.019222
20.658577	2.935000	44.740482
21.658577	2.935000	0.639823
22.658577	2.935000	0.639823
23.658577	2.935000	0.639823
24.658577	2.935000	28.713074
-39.341423	3.935000	8.809839
-38.341423	3.935000	0.640836
-37.341423	3.935000	0.746842
-36.341423	3.935000	0.639823
-35.341423	3.935000	46.962204
-34.341423	3.935000	44.147865
-33.341423	3.935000	0.958151
-32.341423	3.935000	0.639823
-31.341423	3.935000	58.394260
-30.341423	3.935000	0.639823
-29.341423	3.935000	0.844684
-28.341423	3.935000	0.639823
-27.341423	3.935000	0.639823
-26.341423	3.935000	0.639823
-25.341423	3.935000	0.639823
-24.341423	3.935000	14.454112
-23.341423	3.935000	36.911182
-22.341423	3.935000	30.956089
-21.341423	3.935000	0.639823
-20.341423	3.935000	0.639823
-19.341423	3.935000	41.141491
-18.341423	3.935000	29.445770
-17.341423	3.935000	1.121025
-16.341423	3.935000	54.877583
-15.341423	3.935000	51.904438
-14.341423	3.935000	55.828857
-13.341423	3.935000	59.445309
-12.341423	3.935000	0.640334
-11.341423	3.935000	0.639823
-10.341423	3.935000	0.639823
-9.341423	3.935000	0.639823
-8.341423	3.935000	0.639823
-7.341423	3.935000	0.639823
-6.341423	3.935000	41.628986
-5.341423	3.935000	0.639823
-4.341423	3.935000	50.183456
-3.341423	3.935000	0.985136
-2.341423	3.935000	0.639823
-1.341423	3.935000	0.639823
-0.341423	3.935000	0.639823
0.658577	3.935000	0.639823
1.658577	3.935000	0.760329
2.658577	3.935000	1.780105
3.658577	3.935000	19.401878
4.658577	3.935000	136.711227
5.658577	3.935000	0.639823
6.658577	3.935000	0.690631
7.658577	3.935000	0.639823
8.658577	3.935000	0.639823
9.658577	3.935000	0.639823
10.658577	3.935000	0.665827
11.658577	3.935000	6.858415
12.658577	3.935000	5.120739
13.658577	3.935000	0.639823
14.658577	3.935000	0.639823
15.658577	3.935000	2.211796
16.658577	3.935000	21.168388
17.658577	3.935000	0.639823
18.658577	3.935000	0.639823
19.658577	3.935000	0.639823
20.658577	3.935000	0.639823
21.658577	3.935000	0.639823
22.658577	3.935000	0.639823
23.658577	3.935000	12.789075
24.658577	3.935000	37.206932
-39.341423	4.935000	0.639823
-38.341423	4.935000	0.639823
-37.341423	4.935000	0.690599
-36.341423	4.935000	0.639823
-35.341423	4.935000	0.639823
-34.341423	4.935000	13.962120
-33.341423	4.935000	36.190071
-32.341423	4.935000	16.979803
-31.341423	4.935000	40.402264
-30.341423	4.935000	10.993937
-29.341423	4.935000	16.954695
-28.341423	4.935000	43.883888
-27.341423	4.935000	30.603403
-26.341423	4.935000	81.752434
-25.341423	4.935000	0.639823
-24.341423	4.935000	12.915181
-23.341423	4.935000	10.683283
-22.341423	4.935000	0.639823
-21.341423	4.935000	21.117851
-20.341423	4.935000	0.713755
-19.341423	4.935000	0.639823
-18.341423	4.935000	0.639823
-17.341423	4.935000	0.639823
-16.341423	4.935000	0.639823
-15.341423	4.935000	21.431227
-14.341423	4.935000	39.177753
-13.341423	4.935000	57.611687
-12.341423	4.935000	48.939526
-11.341423	4.935000	0.639823
-10.341423	4.935000	4.068151
-9.341423	4.935000	0.639823
-8.341423	4.935000	20.382437
-7.341423	4.935000	18.481604
-6.341423	4.935000	55.049675
-5.341423	4.935000	54.897125
-4.341423	4.935000	55.068821
-3.341423	4.935000	0.682704
-2.341423	4.935000	0.639823
-1.341423	4.935000	0.639823
-0.341423	4.935000	0.639823
0.658577	4.935000	0.639823
1.658577	4.935000	0.721369
2.658577	4.935000	23.469521
3.658577	4.935000	0.639823
4.658577	4.935000	43.301159
5.658577	4.935000	0.790719
6.658577	4.935000	0.639823
7.658577	4.935000	0.639823
8.658577	4.935000	0.639823
9.658577	4.935000	0.639823
10.658577	4.935000	0.639823
11.658577	4.935000	17.798517
12.658577	4.935000	0.639823
13.658577	4.935000	0.639823
14.658577	4.935000	0.639823
15.658577	4.935000	0.639823
16.658577	4.935000	0.639823
17.658577	4.935000	0.639823
18.658577	4.935000	0.639823
19.658577	4.935000	0.639823
20.658577	4.935000	0.639823
21.658577	4.935000	0.639823
22.658577	4.935000	0.639823
23.658577	4.935000	9.027969
24.658577	4.935000	34.138721
-39.341423	5.935000	0.639823
-38.341423	5.935000	0.639823
-37.341423	5.935000	0.639823
-36.341423	5.935000	0.639823
-35.341423	5.935000	0.639823
-34.341423	5.935000	0.639823
-33.341423	5.935000	13.839695
-32.341423	5.935000	1.490826
-31.341423	5.935000	48.835453
-30.341423	5.935000	54.439808
-29.341423	5.935000	53.384777
-28.341423	5.935000	56.066463
-27.341423	5.935000	52.673489
-26.341423	5.935000	1.864658
-25.341423	5.935000	0.639823
-24.341423	5.935000	0.646174
-23.341423	5.935000	8.728943
-22.341423	5.935000	42.606808
-21.341423	5.935000	51.226181
-20.341423	5.935000	41.342945
-19.341423	5.935000	0.639823
-18.341423	5.935000	0.639823
-17.341423	5.935000	4.368782
-16.341423	5.935000	0.639823
-15.341423	5.935000	0.639823
-14.341423	5.935000	0.639823
-13.341423	5.935000	47.808365
-12.341423	5.935000	45.696617
-11.341423	5.935000	0.642231
-10.341423	5.935000	0.639823
-9.341423	5.935000	0.639823
-8.341423	5.935000	0.639823
-7.341423	5.935000	31.605478
-6.341423	5.935000	0.639823
-5.341423	5.935000	54.229061
-4.341423	5.935000	57.372101
-3.341423	5.935000	0.639823
-2.341423	5.935000	0.639823
-1.341423	5.935000	0.639823
-0.341423	5.935000	0.639823
0.658577	5.935000	0.639823
1.658577	5.935000	0.639823
2.658577	5.935000	0.639823
3.658577	5.935000	32.684010
4.658577	5.935000	44.364742
5.658577	5.935000	45.679722
6.658577	5.935000	12.438654
7.658577	5.935000	26.400864
8.658577	5.935000	15.693667
9.658577	5.935000	0.639823
10.658577	5.935000	0.639823
11.658577	5.935000	0.639823
12.658577	5.935000	0.639823
13.658577	5.935000	0.639823
14.658577	5.935000	0.639823
15.658577	5.935000	0.639823
16.658577	5.935000	48.435543
17.658577	5.935000	38.206242
18.658577	5.935000	0.639823
19.658577	5.935000	0.639823
20.658577	5.935000	0.639823
21.658577	5.935000	0.639823
22.658577	5.935000	0.639823
23.658577	5.935000	12.910813
24.658577	5.935000	23.710884
-39.341423	6.935000	0.639823
-38.341423	6.935000	0.639823
-37.341423	6.935000	0.639823
-36.341423	6.935000	0.639823
-35.341423	6.935000	0.639823
-34.341423	6.935000	0.639823
-33.341423	6.935000	0.639823
-32.341423	6.935000	0.639823
-31.341423	6.935000	33.864471
-30.341423	6.935000	0.642327
-29.341423	6.935000	0.875071
-28.341423	6.935000	57.698212
-27.341423	6.935000	45.995750
-26.341423	6.935000	51.782970
-25.341423	6.935000	5.402951
-24.341423	6.935000	0.639823
-23.341423	6.935000	1.772009
-22.341423	6.935000	0.639823
-21.341423	6.935000	37.233086
-20.341423	6.935000	0.639823
-19.341423	6.935000	0.639823
-18.341423	6.935000	0.639823
-17.341423	6.935000	0.639823
-16.341423	6.935000	0.639823
-15.341423	6.935000	0.639823
-14.341423	6.935000	0.639823
-13.341423	6.935000	0.639823
-12.341423	6.935000	42.433964
-11.341423	6.935000	48.643230
-10.341423	6.935000	0.639823
-9.341423	6.935000	0.754621
-8.341423	6.935000	33.132557
-7.341423	6.935000	0.736927
-6.341423	6.935000	22.091690
-5.341423	6.935000	45.073086
-4.341423	6.935000	43.708885
-3.341423	6.935000	0.639823
-2.341423	6.935000	0.689118
-1.341423	6.935000	0.639823
-0.341423	6.935000	0.639823
0.658577	6.935000	0.639823
1.658577	6.935000	0.639823
2.658577	6.935000	0.753088
3.658577	6.935000	47.562313
4.658577	6.935000	48.976711
5.658577	6.935000	33.923897
6.658577	6.935000	0.639823
7.658577	6.935000	9.836299
8.658577	6.935000	13.324163
9.658577	6.935000	11.625750
10.658577	6.935000	0.639823
11.658577	6.935000	0.639823
12.658577	6.935000	0.639823
13.658577	6.935000	0.639823
14.658577	6.935000	51.648026
15.658577	6.935000	30.101517
16.658577	6.935000	42.376755
17.658577	6.935000	43.761086
18.658577	6.935000	0.639823
19.658577	6.935000	0.639823
20.658577	6.935000	0.639823
21.658577	6.935000	0.639823
22.658577	6.935000	34.993187
23.658577	6.935000	0.639823
24.658577	6.935000	0.639823
-39.341423	7.935000	0.639823
-38.341423	7.935000	0.639823
-37.341423	7.935000	0.639823
-36.341423	7.935000	0.639823
-35.341423	7.935000	0.639823
-34.341423	7.935000	0.639823
-33.341423	7.935000	0.639823
-32.341423	7.935000	0.639823
-31.341423	7.935000	0.639823
-30.341423	7.935000	0.639823
-29.341423	7.935000	0.639823
-28.341423	7.935000	35.537647
-27.341423	7.935000	0.639823
-26.341423	7.935000	24.794563
-25.341423	7.935000	0.874527
-24.341423	7.935000	0.639823
-23.341423	7.935000	0.764640
-22.341423	7.935000	0.639823
-21.341423	7.935000	34.194847
-20.341423	7.935000	18.903603
-19.341423	7.935000	3.201747
-18.341423	7.935000	0.641191
-17.341423	7.935000	0.790870
-16.341423	7.935000	0.639823
-15.341423	7.935000	0.639823
-14.341423	7.935000	1.360994
-13.341423	7.935000	8.721159
-12.341423	7.935000	0.639823
-11.341423	7.935000	37.019775
-10.341423	7.935000	43.429325
-9.341423	7.935000	38.211830
-8.341423	7.935000	0.639823
-7.341423	7.935000	42.821407
-6.341423	7.935000	0.639823
-5.341423	7.935000	0.639823
-4.341423	7.935000	47.519459
-3.341423	7.935000	22.181168
-2.341423	7.935000	0.639823
-1.341423	7.935000	0.639823
-0.341423	7.935000	0.639823
0.658577	7.935000	0.639823
1.658577	7.935000	0.703997
2.658577	7.935000	0.639823
3.658577	7.935000	31.380602
4.658577	7.935000	35.144699
5.658577	7.935000	32.977470
6.658577	7.935000	0.712472
7.658577	7.935000	36.769405
8.658577	7.935000	0.641169
9.658577	7.935000	7.026063
10.658577	7.935000	0.639823
11.658577	7.935000	0.639823
12.658577	7.935000	0.639823
13.658577	7.935000	13.970287
14.658577	7.935000	0.839550
15.658577	7.935000	43.626358
16.658577	7.935000	22.578802
17.658577	7.935000	0.803883
18.658577	7.935000	42.479729
19.658577	7.935000	56.607292
20.658577	7.935000	44.598694
21.658577	7.935000	0.639823
22.658577	7.935000	0.639823
23.658577	7.935000	0.639823
24.658577	7.935000	0.639823
-39.341423	8.935000	0.639823
-38.341423	8.935000	0.639823
-37.341423	8.935000	0.639823
-36.341423	8.935000	0.639823
-35.341423	8.935000	0.639823
-34.341423	8.935000	0.639823
-33.341423	8.935000	0.639823
-32.341423	8.935000	0.639823
-31.341423	8.935000	0.639823
-30.341423	8.935000	0.639823
-29.341423	8.935000	0.639823
-28.341423	8.935000	0.639823
-27.341423	8.935000	36.396713
-26.341423	8.935000	0.639823
-25.341423	8.935000	0.693070
-24.341423	8.935000	0.669674
-23.341423	8.935000	11.088091
-22.341423	8.935000	0.652733
-21.341423	8.935000	35.025478
-20.341423	8.935000	21.077801
-19.341423	8.935000	28.108385
-18.341423	8.935000	0.639823
-17.341423	8.935000	0.639823
-16.341423	8.935000	0.639823
-15.341423	8.935000	0.639823
-14.341423	8.935000	0.639823
-13.341423	8.935000	0.639823
-12.341423	8.935000	14.683837
-11.341423	8.935000	0.639823
-10.341423	8.935000	10.364120
-9.341423	8.935000	1.575406
-8.341423	8.935000	0.639823
-7.341423	8.935000	6.863784
-6.341423	8.935000	11.079189
-5.341423	8.935000	1.074887
-4.341423	8.935000	6.318071
-3.341423	8.935000	0.639823
-2.341423	8.935000	1.884269
-1.341423	8.935000	0.639823
-0.341423	8.935000	0.639823
0.658577	8.935000	0.639823
1.658577	8.935000	0.639823
2.658577	8.935000	0.640061
3.658577	8.935000	0.949061
4.658577	8.935000	0.639823
5.658577	8.935000	21.456335
6.658577	8.935000	1.365771
7.658577	8.935000	37.649258
8.658577	8.935000	28.355349
9.658577	8.935000	0.639852
10.658577	8.935000	0.670987
11.658577	8.935000	19.044601
12.658577	8.935000	0.654649
13.658577	8.935000	54.342243
14.658577	8.935000	34.982025
15.658577	8.935000	51.603355
16.658577	8.935000	57.100014
17.658577	8.935000	0.639823
18.658577	8.935000	58.456230
19.658577	8.935000	61.696308
20.658577	8.935000	61.587559
21.658577	8.935000	54.548168
22.658577	8.935000	57.424690
23.658577	8.935000	54.259388
24.658577	8.935000	41.614754
-39.341423	9.935000	0.639823
-38.341423	9.935000	0.639823
-37.341423	9.935000	0.639823
-36.341423	9.935000	0.639823
-35.341423	9.935000	0.639823
-34.341423	9.935000	0.639823
-33.341423	9.935000	0.639823
-32.341423	9.935000	0.639823
-31.341423	9.935000	0.639823
-30.341423	9.935000	0.639823
-29.341423	9.935000	0.639823
-28.341423	9.935000	0.684552
-27.341423	9.935000	1.346115
-26.341423	9.935000	9.755856
-25.341423	9.935000	41.988091
-24.341423	9.935000	50.942921
-23.341423	9.935000	41.587326
-22.341423	9.935000	31.184464
-21.341423	9.935000	5.734529
-20.341423	9.935000	0.743105
-19.341423	9.935000	0.639823
-18.341423	9.935000	0.737177
-17.341423	9.935000	0.639823
-16.341423	9.935000	0.641048
-15.341423	9.935000	0.639823
-14.341423	9.935000	0.639823
-13.341423	9.935000	0.639823
-12.341423	9.935000	5.968776
-11.341423	9.935000	28.022415
-10.341423	9.935000	45.512661
-9.341423	9.935000	0.730722
-8.341423	9.935000	0.639823
-7.341423	9.935000	0.639823
-6.341423	9.935000	0.639823
-5.341423	9.935000	0.639823
-4.341423	9.935000	0.699057
-3.341423	9.935000	0.831087
-2.341423	9.935000	2.156059
-1.341423	9.935000	0.639823
-0.341423	9.935000	0.639823
0.658577	9.935000	0.644233
1.658577	9.935000	43.546364
2.658577	9.935000	0.639823
3.658577	9.935000	0.639823
4.658577	9.935000	37.059944
5.658577	9.935000	0.639823
6.658577	9.935000	9.677874
7.658577	9.935000	12.118530
8.658577	9.935000	0.639839
9.658577	9.935000	8.167658
10.658577	9.935000	0.639823
11.658577	9.935000	0.912842
12.658577	9.935000	0.784700
13.658577	9.935000	59.032852
14.658577	9.935000	58.943295
15.658577	9.935000	61.633747
16.658577	9.935000	60.142792
17.658577	9.935000	57.410553
18.658577	9.935000	58.289238
19.658577	9.935000	63.358009
20.658577	9.935000	54.121849
21.658577	9.935000	42.299717
22.658577	9.935000	53.319084
23.658577	9.935000	58.802380
24.658577	9.935000	55.761246
-39.341423	10.935000	0.639823
-38.341423	10.935000	0.639823
-37.341423	10.935000	0.639823
-36.341423	10.935000	0.639823
-35.341423	10.935000	0.639823
-34.341423	10.935000	0.639823
-33.341423	10.935000	0.639823
-32.341423	10.935000	0.639823
-31.341423	10.935000	0.639823
-30.341423	10.935000	0.639823
-29.341423	10.935000	0.639823
-28.341423	10.935000	0.639823
-27.341423	10.935000	39.750053
-26.341423	10.935000	0.640007
-25.341423	10.935000	54.066730
-24.341423	10.935000	58.313747
-23.341423	10.935000	50.451309
-22.341423	10.935000	21.407421
-21.341423	10.935000	42.152248
-20.341423	10.935000	35.243549
-19.341423	10.935000	0.639823
-18.341423	10.935000	0.639823
-17.341423	10.935000	0.843132
-16.341423	10.935000	0.681758
-15.341423	10.935000	0.639823
-14.341423	10.935000	0.655694
-13.341423	10.935000	0.639823
-12.341423	10.935000	36.513454
-11.341423	10.935000	32.139694
-10.341423	10.935000	32.914864
-9.341423	10.935000	22.330843
-8.341423	10.935000	1.366514
-7.341423	10.935000	0.682405
-6.341423	10.935000	0.639823
-5.341423	10.935000	0.639823
-4.341423	10.935000	0.639823
-3.341423	10.935000	46.289978
-2.341423	10.935000	38.845833
-1.341423	10.935000	0.639823
-0.341423	10.935000	0.639823
0.658577	10.935000	0.639823
1.658577	10.935000	0.819760
2.658577	10.935000	17.050491
3.658577	10.935000	12.073197
4.658577	10.935000	9.771516
5.658577	10.935000	17.673313
6.658577	10.935000	0.639823
7.658577	10.935000	327.900299
8.658577	10.935000	48.737057
9.658577	10.935000	50.669834
10.658577	10.935000	45.504948
11.658577	10.935000	1.261438
12.658577	10.935000	0.868452
13.658577	10.935000	53.369316
14.658577	10.935000	61.226318
15.658577	10.935000	58.845398
16.658577	10.935000	60.292805
17.658577	10.935000	51.490761
18.658577	10.935000	55.632080
19.658577	10.935000	54.486996
20.658577	10.935000	41.884560
21.658577	10.935000	39.208984
22.658577	10.935000	39.814884
23.658577	10.935000	50.583035
24.658577	10.935000	46.286667
-39.341423	11.935000	0.639823
-38.341423	11.935000	0.639823
-37.341423	11.935000	0.639823
-36.341423	11.935000	0.639823
-35.341423	11.935000	0.639823
-34.341423	11.935000	0.639823
-33.341423	11.935000	8.393030
-32.341423	11.935000	0.639823
-31.341423	11.935000	0.639823
-30.341423	11.935000	0.639823
-29.341423	11.935000	0.639823
-28.341423	11.935000	0.639823
-27.341423	11.935000	51.093246
-26.341423	11.935000	35.213840
-25.341423	11.935000	61.989651
-24.341423	11.935000	58.836803
-23.341423	11.935000	42.266014
-22.341423	11.935000	0.675723
-21.341423	11.935000	50.007156
-20.341423	11.935000	45.847610
-19.341423	11.935000	0.639823
-18.341423	11.935000	31.367052
-17.341423	11.935000	27.989449
-16.341423	11.935000	22.381231
-15.341423	11.935000	0.639823
-14.341423	11.935000	0.639823
-13.341423	11.935000	0.639823
-12.341423	11.935000	37.556973
-11.341423	11.935000	43.139500
-10.341423	11.935000	27.333761
-9.341423	11.935000	21.989998
-8.341423	11.935000	22.067366
-7.341423	11.935000	0.893641
-6.341423	11.935000	34.799355
-5.341423	11.935000	0.639823
-4.341423	11.935000	0.639823
-3.341423	11.935000	33.381195
-2.341423	11.935000	43.204956
-1.341423	11.935000	0.639823
-0.341423	11.935000	0.639823
0.658577	11.935000	0.639823
1.658577	11.935000	5.957987
2.658577	11.935000	17.425060
3.658577	11.935000	0.639823
4.658577	11.935000	156.129379
5.658577	11.935000	0.639823
6.658577	11.935000	0.649944
7.658577	11.935000	0.639823
8.658577	11.935000	0.639823
9.658577	11.935000	45.518391
10.658577	11.935000	6.566015
11.658577	11.935000	8.466153
12.658577	11.935000	0.641795
13.658577	11.935000	44.019802
14.658577	11.935000	63.059681
15.658577	11.935000	61.488232
16.658577	11.935000	37.423225
17.658577	11.935000	67.256210
18.658577	11.935000	72.516769
19.658577	11.935000	60.081245
20.658577	11.935000	48.327969
21.658577	11.935000	42.557140
22.658577	11.935000	35.532177
23.658577	11.935000	31.175209
24.658577	11.935000	27.075901
-39.341423	12.935000	0.639823
-38.341423	12.935000	0.639823
-37.341423	12.935000	0.639823
-36.341423	12.935000	0.639823
-35.341423	12.935000	0.639823
-34.341423	12.935000	0.639823
-33.341423	12.935000	0.639823
-32.341423	12.935000	0.639823
-31.341423	12.935000	0.639823
-30.341423	12.935000	0.639823
-29.341423	12.935000	0.639823
-28.341423	12.935000	0.691563
-27.341423	12.935000	46.128750
-26.341423	12.935000	50.131180
-25.341423	12.935000	61.105183
-24.341423	12.935000	46.730698
-23.341423	12.935000	0.639823
-22.341423	12.935000	0.884987
-21.341423	12.935000	0.670049
-20.341423	12.935000	0.639823
-19.341423	12.935000	0.639823
-18.341423	12.935000	0.639823
-17.341423	12.935000	47.321987
-16.341423	12.935000	29.932091
-15.341423	12.935000	0.639823
-14.341423	12.935000	0.639823
-13.341423	12.935000	0.639823
-12.341423	12.935000	33.141644
-11.341423	12.935000	35.311718
-10.341423	12.935000	0.639823
-9.341423	12.935000	0.639823
-8.341423	12.935000	0.639823
-7.341423	12.935000	0.895258
-6.341423	12.935000	50.519680
-5.341423	12.935000	39.946060
-4.341423	12.935000	0.639823
-3.341423	12.935000	1.025332
-2.341423	12.935000	30.656363
-1.341423	12.935000	205.970978
-0.341423	12.935000	41.054436
0.658577	12.935000	2.638464
1.658577	12.935000	23.524172
2.658577	12.935000	0.639823
3.658577	12.935000	8.569710
4.658577	12.935000	49.682083
5.658577	12.935000	35.774334
6.658577	12.935000	0.639823
7.658577	12.935000	0.639823
8.658577	12.935000	11.950894
9.658577	12.935000	9.397612
10.658577	12.935000	5.670358
11.658577	12.935000	0.639823
12.658577	12.935000	2.499565
13.658577	12.935000	50.243458
14.658577	12.935000	54.323811
15.658577	12.935000	57.507065
16.658577	12.935000	65.779579
17.658577	12.935000	56.745060
18.658577	12.935000	59.055584
19.658577	12.935000	62.479908
20.658577	12.935000	56.883709
21.658577	12.935000	55.859558
22.658577	12.935000	54.674374
23.658577	12.935000	51.092564
24.658577	12.935000	51.103069
-39.341423	13.935000	0.639823
-38.341423	13.935000	0.639823
-37.341423	13.935000	0.639823
-36.341423	13.935000	0.639823
-35.341423	13.935000	0.639823
-34.341423	13.935000	0.639823
-33.341423	13.935000	0.639823
-32.341423	13.935000	0.639823
-31.341423	13.935000	0.639823
-30.341423	13.935000	0.639823
-29.341423	13.935000	0.639823
-28.341423	13.935000	28.057508
-27.341423	13.935000	14.560417
-26.341423	13.935000	0.639823
-25.341423	13.935000	48.919216
-24.341423	13.935000	39.445446
-23.341423	13.935000	18.066669
-22.341423	13.935000	0.639823
-21.341423	13.935000	0.639823
-20.341423	13.935000	0.639823
-19.341423	13.935000	8.596947
-18.341423	13.935000	0.639823
-17.341423	13.935000	43.181202
-16.341423	13.935000	25.986124
-15.341423	13.935000	11.639396
-14.341423	13.935000	0.639823
-13.341423	13.935000	0.655824
-12.341423	13.935000	0.670641
-11.341423	13.935000	1.110678
-10.341423	13.935000	56.348114
-9.341423	13.935000	0.702368
-8.341423	13.935000	0.639823
-7.341423	13.935000	0.828608
-6.341423	13.935000	33.515594
-5.341423	13.935000	29.641562
-4.341423	13.935000	0.901013
-3.341423	13.935000	0.639823
-2.341423	13.935000	47.614594
-1.341423	13.935000	30.231775
-0.341423	13.935000	0.802924
0.658577	13.935000	7.560963
1.658577	13.935000	32.879383
2.658577	13.935000	13.846464
3.658577	13.935000	46.452316
4.658577	13.935000	59.407959
5.658577	13.935000	57.485767
6.658577	13.935000	33.067337
7.658577	13.935000	0.639823
8.658577	13.935000	0.671430
9.658577	13.935000	2.982630
10.658577	13.935000	1.961994
11.658577	13.935000	19.453938
12.658577	13.935000	40.507088
13.658577	13.935000	53.219177
14.658577	13.935000	59.737793
15.658577	13.935000	58.323967
16.658577	13.935000	60.717377
17.658577	13.935000	56.741741
18.658577	13.935000	58.808949
19.658577	13.935000	56.938255
20.658577	13.935000	57.964787
21.658577	13.935000	55.501141
22.658577	13.935000	60.164665
23.658577	13.935000	59.574123
24.658577	13.935000	49.918888
-39.341423	14.935000	0.639823
-38.341423	14.935000	0.639823
-37.341423	14.935000	0.639823
-36.341423	14.935000	0.639823
-35.341423	14.935000	0.639823
-34.341423	14.935000	0.639823
-33.341423	14.935000	0.639823
-32.341423	14.935000	0.639823
-31.341423	14.935000	0.639823
-30.341423	14.935000	0.639823
-29.341423	14.935000	0.639823
-28.341423	14.935000	20.578272
-27.341423	14.935000	0.640770
-26.341423	14.935000	0.639823
-25.341423	14.935000	43.241104
-24.341423	14.935000	48.372932
-23.341423	14.935000	48.759945
-22.341423	14.935000	41.474041
-21.341423	14.935000	0.639823
-20.341423	14.935000	14.564757
-19.341423	14.935000	11.003873
-18.341423	14.935000	0.639823
-17.341423	14.935000	34.494629
-16.341423	14.935000	0.639823
-15.341423	14.935000	0.639823
-14.341423	14.935000	32.377171
-13.341423	14.935000	0.652340
-12.341423	14.935000	0.639823
-11.341423	14.935000	46.737076
-10.341423	14.935000	58.861477
-9.341423	14.935000	55.298374
-8.341423	14.935000	36.831146
-7.341423	14.935000	0.639823
-6.341423	14.935000	0.639823
-5.341423	14.935000	0.639823
-4.341423	14.935000	63.051086
-3.341423	14.935000	48.392212
-2.341423	14.935000	53.057327
-1.341423	14.935000	0.639823
-0.341423	14.935000	13.214775
0.658577	14.935000	0.639823
1.658577	14.935000	2.948338
2.658577	14.935000	3.706395
3.658577	14.935000	49.920181
4.658577	14.935000	59.532509
5.658577	14.935000	55.687073
6.658577	14.935000	58.336632
7.658577	14.935000	53.306274
8.658577	14.935000	9.439213
9.658577	14.935000	0.639823
10.658577	14.935000	6.839732
11.658577	14.935000	1908.519653
12.658577	14.935000	0.647485
13.658577	14.935000	56.010323
14.658577	14.935000	60.293285
15.658577	14.935000	59.932243
16.658577	14.935000	58.762047
17.658577	14.935000	56.785343
18.658577	14.935000	57.568928
19.658577	14.935000	58.370293
20.658577	14.935000	60.450039
21.658577	14.935000	61.503479
22.658577	14.935000	62.444794
23.658577	14.935000	59.072506
24.658577	14.935000	55.493031
-39.341423	15.935000	0.639823
-38.341423	15.935000	0.639823
-37.341423	15.935000	0.639823
-36.341423	15.935000	0.639823
-35.341423	15.935000	0.639823
-34.341423	15.935000	0.639823
-33.341423	15.935000	0.639823
-32.341423	15.935000	0.639823
-31.341423	15.935000	5.161121
-30.341423	15.935000	8.049065
-29.341423	15.935000	0.639823
-28.341423	15.935000	1.449766
-27.341423	15.935000	0.639823
-26.341423	15.935000	23.286160
-25.341423	15.935000	0.639823
-24.341423	15.935000	41.941864
-23.341423	15.935000	54.674377
-22.341423	15.935000	55.476181
-21.341423	15.935000	51.320747
-20.341423	15.935000	13.578824
-19.341423	15.935000	20.310055
-18.341423	15.935000	0.639823
-17.341423	15.935000	0.639823
-16.341423	15.935000	0.639823
-15.341423	15.935000	0.639823
-14.341423	15.935000	0.639823
-13.341423	15.935000	0.639823
-12.341423	15.935000	0.639823
-11.341423	15.935000	0.639823
-10.341423	15.935000	56.351532
-9.341423	15.935000	61.906059
-8.341423	15.935000	53.765015
-7.341423	15.935000	29.712734
-6.341423	15.935000	0.649607
-5.341423	15.935000	10.231697
-4.341423	15.935000	0.639823
-3.341423	15.935000	12.765723
-2.341423	15.935000	39.542362
-1.341423	15.935000	41.766006
-0.341423	15.935000	17.719975
0.658577	15.935000	0.639823
1.658577	15.935000	0.639823
2.658577	15.935000	0.639823
3.658577	15.935000	47.596909
4.658577	15.935000	59.103889
5.658577	15.935000	60.924606
6.658577	15.935000	56.611874
7.658577	15.935000	65.592659
8.658577	15.935000	55.430355
9.658577	15.935000	37.147533
10.658577	15.935000	0.644304
11.658577	15.935000	53.853546
12.658577	15.935000	40.511986
13.658577	15.935000	52.781502
14.658577	15.935000	62.198471
15.658577	15.935000	63.153831
16.658577	15.935000	60.273975
17.658577	15.935000	59.580631
18.658577	15.935000	62.806881
19.658577	15.935000	67.489746
20.658577	15.935000	61.808819
21.658577	15.935000	61.252670
22.658577	15.935000	61.057190
23.658577	15.935000	57.305565
24.658577	15.935000	57.337013
